time, position, , , velocity, , ,acceleration, , 
, x, y, s, x, y, s, x, y, s, 
0.0199999995529652, 0, 0, 0 , 0, 0, 0, 0, 0, 0
0.0399999991059303, -2.303016E-08, 0.1004511, 0.100451089441779 , -1.217846E-08, -0.0974461, 0.0974460989236839, -6.08923E-07, -4.872305, 4.87230491638187
0.0599999986588955, -2.367955E-08, 0.09717414, 0.0971741378307371 , -3.224671E-08, -0.1648484, 0.164848417043689, -1.003412E-06, -3.370116, 3.37011599540725
0.0799999982118607, -2.471219E-08, 0.09257151, 0.0925715118646655 , -5.14538E-08, -0.2309322, 0.230932176113134, -9.603549E-07, -3.304188, 3.30418801307692
0.0999999977648258, -2.613325E-08, 0.08667768, 0.0866776779294053 , -7.091017E-08, -0.2953324, 0.295332431793221, -9.728183E-07, -3.220013, 3.22001290321365
0.119999997317791, -2.794889E-08, 0.07953402, 0.0795340165495922 , -9.06681E-08, -0.3576956, 0.35769557952882, -9.878963E-07, -3.118157, 3.11815738677994
0.139999996870756, -3.016627E-08, 0.07118858, 0.0711885839700763 , -1.107778E-07, -0.4176813, 0.417681336402908, -1.005486E-06, -2.999288, 2.99928784370439
0.159999996423721, -3.279348E-08, 0.06169585, 0.0616958476603118 , -1.312873E-07, -0.4749646, 0.474964618682879, -1.025474E-06, -2.864164, 2.8641641139986
0.179999995976686, -3.583948E-08, 0.05111634, 0.0511163435876495 , -1.52242E-07, -0.5292374, 0.529237449169181, -1.047735E-06, -2.713642, 2.71364164352437
0.199999995529652, -3.931411E-08, 0.03951633, 0.0395163297653394 , -1.736847E-07, -0.5802103, 0.580210328102138, -1.072135E-06, -2.548644, 2.54864406585716
0.219999995082617, -4.322797E-08, 0.02696741, 0.026967408135568 , -1.956552E-07, -0.6276141, 0.62761414051059, -1.098525E-06, -2.370191, 2.37019062042262
0.239999994635582, -4.759237E-08, 0.01354608, 0.01354607753464 , -2.1819E-07, -0.6712012, 0.671201229095495, -1.12674E-06, -2.179354, 2.17935442924529
0.259999994188547, -5.24193E-08, -0.0006667047, 0.000666704671189823 , -2.413224E-07, -0.710747, 0.710747003555339, -1.15662E-06, -1.977289, 1.97728872299228
0.279999993741512, -5.772132E-08, -0.015586, 0.0155860017986174 , -2.65082E-07, -0.746051, 0.746050953865098, -1.187979E-06, -1.765198, 1.76519751548807
0.299999993294477, -6.351151E-08, -0.03112338, 0.0311233792454652 , -2.894947E-07, -0.7769377, 0.776937723159844, -1.220634E-06, -1.544338, 1.54433846473742
0.319999992847443, -6.980341E-08, -0.04718743, 0.047187432646803 , -3.145826E-07, -0.8032576, 0.8032575845719, -1.254395E-06, -1.315993, 1.31599307060301
0.339999992400408, -7.661088E-08, -0.06368431, 0.0636843070388301 , -3.403638E-07, -0.8248878, 0.824887752533029, -1.289064E-06, -1.081508, 1.0815083980568
0.359999991953373, -8.394809E-08, -0.08051825, 0.0805182456970652 , -3.668526E-07, -0.8417326, 0.841732621193012, -1.324439E-06, -0.8422434, 0.842243432999699
0.379999991506338, -9.18294E-08, -0.09759215, 0.0975921526551679 , -3.94059E-07, -0.8537239, 0.853723883628936, -1.360321E-06, -0.5995631, 0.599563121797198
0.399999991059303, -1.002693E-07, -0.1148081, 0.114808119833513 , -4.219891E-07, -0.8608212, 0.860821247100934, -1.396501E-06, -0.3548682, 0.354868173601991
0.419999990612268, -1.092823E-07, -0.132068, 0.132067993283317 , -4.506444E-07, -0.8630124, 0.863012433052181, -1.43277E-06, -0.1095593, 0.109559297571014
0.439999990165234, -1.188828E-07, -0.149274, 0.149273961782503 , -4.80023E-07, -0.8603128, 0.86031281948103, -1.468928E-06, 0.1349807, 0.134980678566342
0.459999989718199, -1.290852E-07, -0.166329, 0.166329026222279 , -5.101183E-07, -0.8527651, 0.852765083313141, -1.504765E-06, 0.3773868, 0.377386808398386
0.479999989271164, -1.399036E-07, -0.1831376, 0.18313762545591 , -5.4092E-07, -0.8404396, 0.840439558029349, -1.540087E-06, 0.6162763, 0.616276264192598
0.499999988824129, -1.51352E-07, -0.1996061, 0.199606135487614 , -5.724139E-07, -0.8234328, 0.823432803154191, -1.574693E-06, 0.8503377, 0.850337743760613
0.519999988377094, -1.634436E-07, -0.2156434, 0.215643361210885 , -6.045817E-07, -0.8018675, 0.801867485046615, -1.608387E-06, 1.078266, 1.07826590538145
0.539999987930059, -1.761917E-07, -0.2311611, 0.231161087751456 , -6.374016E-07, -0.7758913, 0.775891304016375, -1.640998E-06, 1.298809, 1.29880905151471
0.559999987483025, -1.896087E-07, -0.2460745, 0.246074527502133 , -6.708485E-07, -0.7456759, 0.745675921440426, -1.672342E-06, 1.510769, 1.51076912880036
0.57999998703599, -2.037065E-07, -0.2603028, 0.260302782058796 , -7.048933E-07, -0.7114162, 0.711416244507185, -1.702242E-06, 1.712984, 1.71298384666527
0.599999986588955, -2.184966E-07, -0.2737693, 0.273769289255229 , -7.39504E-07, -0.6733288, 0.673328757286478, -1.730535E-06, 1.904374, 1.90437436103899
0.61999998614192, -2.339896E-07, -0.2864023, 0.286402255296803 , -7.746456E-07, -0.6316503, 0.631650328636644, -1.757081E-06, 2.083921, 2.08392143249586
0.639999985694885, -2.501952E-07, -0.298135, 0.29813495278369 , -8.102803E-07, -0.5866369, 0.586636900902354, -1.781734E-06, 2.250671, 2.25067138671946
0.65999998524785, -2.671225E-07, -0.3089062, 0.308906167745706 , -8.463677E-07, -0.5385619, 0.538561940193841, -1.804369E-06, 2.403748, 2.40374803543159
0.679999984800816, -2.847798E-07, -0.3186604, 0.318660438060888 , -8.82865E-07, -0.4877144, 0.48771435022434, -1.824867E-06, 2.54238, 2.5423796176917
0.699999984353781, -3.031744E-07, -0.3273484, 0.327348351478717 , -9.197275E-07, -0.4343972, 0.434397220612546, -1.843125E-06, 2.665857, 2.66585659980838
0.719999983906746, -3.223125E-07, -0.3349268, 0.334926843643344 , -9.569085E-07, -0.3789259, 0.378925949336307, -1.859047E-06, 2.773564, 2.77356362342897
0.739999983459711, -3.421997E-07, -0.3413593, 0.341359347105198 , -9.943598E-07, -0.3216262, 0.321626245977031, -1.872564E-06, 2.864985, 2.86498522758545
0.759999983012676, -3.628404E-07, -0.346616, 0.346615970134925 , -1.032032E-06, -0.2628324, 0.26283240318501, -1.883609E-06, 2.939692, 2.93969225883544
0.779999982565641, -3.842378E-07, -0.3506736, 0.350673645734997 , -1.069875E-06, -0.2028852, 0.202885150912245, -1.892136E-06, 2.997363, 2.99736261367858
0.799999982118607, -4.063946E-07, -0.3535162, 0.353516221046681 , -1.107837E-06, -0.14213, 0.142129987482574, -1.898104E-06, 3.037758, 3.03775835037291
0.819999981671572, -4.293119E-07, -0.3551345, 0.355134487152359 , -1.145867E-06, -0.08091486, 0.0809148550114705, -1.901515E-06, 3.060757, 3.0607566833502
0.839999981224537, -4.529902E-07, -0.3555262, 0.355526238680174 , -1.183914E-06, -0.01958832, 0.0195883214831502, -1.902333E-06, 3.066327, 3.06632685661375
0.859999980777502, -4.774287E-07, -0.3546962, 0.354696154594743 , -1.221925E-06, 0.04150228, 0.0415022820414181, -1.900588E-06, 3.05453, 3.05453014373838
0.879999980330467, -5.026257E-07, -0.3526559, 0.352655857801796 , -1.259852E-06, 0.1020129, 0.102012902506025, -1.896302E-06, 3.025531, 3.02553105354369
0.899999979883432, -5.285785E-07, -0.3494237, 0.349423736334247 , -1.297642E-06, 0.1616048, 0.161604836588347, -1.889515E-06, 2.979597, 2.97959685325682
0.919999979436398, -5.552835E-07, -0.3450248, 0.345024764538258 , -1.335247E-06, 0.2199464, 0.219946384433985, -1.880267E-06, 2.917078, 2.91707754135192
0.939999978989363, -5.827359E-07, -0.3394904, 0.339490443468594 , -1.37262E-06, 0.2767149, 0.276714861396379, -1.868631E-06, 2.838424, 2.83842396736207
0.959999978542328, -6.109302E-07, -0.3328585, 0.332858473063076 , -1.409714E-06, 0.3315983, 0.331598252061026, -1.854704E-06, 2.74417, 2.74416971206728
0.979999978095293, -6.398599E-07, -0.3251725, 0.325172543526325 , -1.446485E-06, 0.3842969, 0.384296894076209, -1.838555E-06, 2.634932, 2.63493204116885
0.999999977648258, -6.695177E-07, -0.316482, 0.31648203730654 , -1.482891E-06, 0.4345254, 0.434525400402692, -1.820297E-06, 2.511425, 2.51142525672979
1.01999997720122, -6.998955E-07, -0.3068418, 0.306841760874593 , -1.518892E-06, 0.4820136, 0.482013642790326, -1.800032E-06, 2.374412, 2.37441205978462
1.03999997675419, -7.309845E-07, -0.2963116, 0.296311587096162 , -1.55445E-06, 0.5265088, 0.526508808138281, -1.777903E-06, 2.224758, 2.22475838661265
1.05999997630715, -7.627751E-07, -0.2849561, 0.284956067801543 , -1.58953E-06, 0.5677761, 0.567776143553098, -1.75404E-06, 2.063367, 2.06336688995436
1.07999997586012, -7.952571E-07, -0.272844, 0.272844046355453 , -1.624102E-06, 0.6056008, 0.605600774290355, -1.728586E-06, 1.891232, 1.89123153686602
1.09999997541308, -8.284198E-07, -0.2600483, 0.260048270226844 , -1.658136E-06, 0.6397883, 0.639788329603437, -1.701704E-06, 1.709378, 1.70937776565636
1.11999997496605, -8.62252E-07, -0.2466449, 0.246644929052906 , -1.691607E-06, 0.670166, 0.670166015627135, -1.673538E-06, 1.518884, 1.51888430118653
1.13999997451901, -8.967418E-07, -0.2327133, 0.232713252307712 , -1.724492E-06, 0.6965836, 0.696583628656615, -1.644264E-06, 1.320881, 1.32088065147502
1.15999997407198, -9.318773E-07, -0.218335, 0.218334957959256 , -1.756773E-06, 0.7189144, 0.718914389612437, -1.614058E-06, 1.116538, 1.11653804779169
1.17999997362494, -9.67646E-07, -0.2035939, 0.203593865039264 , -1.788435E-06, 0.7370549, 0.737054944040561, -1.583078E-06, 0.9070277, 0.907027721406411
1.19999997317791, -1.004035E-06, -0.1885753, 0.188575327399066 , -1.819465E-06, 0.7509266, 0.750926613809882, -1.551507E-06, 0.6935835, 0.693583488466091
1.21999997273088, -1.041032E-06, -0.1733658, 0.173365816477086 , -1.849856E-06, 0.760475, 0.760475039484367, -1.519561E-06, 0.4774213, 0.477421283724342
1.23999997228384, -1.078624E-06, -0.1580524, 0.158052399758205 , -1.879604E-06, 0.7656708, 0.765670776369495, -1.487376E-06, 0.2597868, 0.259786844257798
1.25999997183681, -1.116799E-06, -0.1427222, 0.142722204331953 , -1.908707E-06, 0.7665091, 0.766509056093685, -1.455169E-06, 0.04191399, 0.0419139862313149
1.27999997138977, -1.155542E-06, -0.127462, 0.127461999660008 , -1.937169E-06, 0.7630097, 0.763009667399005, -1.423098E-06, -0.1749694, 0.174969434743946
1.29999997094274, -1.194842E-06, -0.1123577, 0.112357653683817 , -1.964996E-06, 0.755217, 0.755216956141167, -1.391345E-06, -0.3896356, 0.389635562899213
1.3199999704957, -1.234686E-06, -0.09749367, 0.0974936708886127 , -1.992198E-06, 0.7431992, 0.743199229243088, -1.360115E-06, -0.6008863, 0.600886344911207
1.33999997004867, -1.275062E-06, -0.08295271, 0.0829527080157046 , -2.018789E-06, 0.7270483, 0.727048277857722, -1.329556E-06, -0.8075476, 0.807547569275997
1.35999996960163, -1.315957E-06, -0.06881513, 0.068815134478277 , -2.044787E-06, 0.7068788, 0.706878781321622, -1.299873E-06, -1.008475, 1.00847482681358
1.3799999691546, -1.357361E-06, -0.05515859, 0.0551585853266835 , -2.07021E-06, 0.6828275, 0.682827472689906, -1.271155E-06, -1.202565, 1.20256543159552
1.39999996870756, -1.399263E-06, -0.04205754, 0.0420575365656925 , -2.095083E-06, 0.6550524, 0.655052363875879, -1.243632E-06, -1.388755, 1.38875544071253
1.41999996826053, -1.441652E-06, -0.0295829, 0.0295829046868888 , -2.119431E-06, 0.6237314, 0.623731374744201, -1.217404E-06, -1.566049, 1.56604945659685
1.43999996781349, -1.484517E-06, -0.01780167, 0.0178016704194834 , -2.143284E-06, 0.5890615, 0.589061498645867, -1.192655E-06, -1.733494, 1.73349380493205
1.45999996736646, -1.527851E-06, -0.006776508, 0.00677650811610544 , -2.166673E-06, 0.5512578, 0.551257848743882, -1.169474E-06, -1.890182, 1.89018249511755
1.47999996691942, -1.571643E-06, 0.003434531, 0.0034345317502594 , -2.189634E-06, 0.5105517, 0.510551691059993, -1.148032E-06, -2.035308, 2.03530788421663
1.49999996647239, -1.615888E-06, 0.01277833, 0.0127783316277926 , -2.212202E-06, 0.4671897, 0.467189729218952, -1.12841E-06, -2.168098, 2.16809821128875
1.51999996602535, -1.660576E-06, 0.02120698, 0.0212069769108748 , -2.234416E-06, 0.421432, 0.421431958681308, -1.110686E-06, -2.287889, 2.28788852691677
1.53999996557832, -1.705702E-06, 0.02867799, 0.0286779925734422 , -2.256316E-06, 0.3735505, 0.373550534255166, -1.094986E-06, -2.394071, 2.39407134056116
1.55999996513128, -1.751261E-06, 0.03515456, 0.0351545624871152 , -2.277943E-06, 0.3238282, 0.323828220375444, -1.081366E-06, -2.486116, 2.48611569404626
1.57999996468425, -1.797248E-06, 0.0406057, 0.0406057015459118 , -2.299342E-06, 0.2725564, 0.272556424150629, -1.06993E-06, -2.56359, 2.5635898113253
1.59999996423721, -1.843659E-06, 0.04500638, 0.0450063795228925 , -2.320555E-06, 0.2200337, 0.220033720147925, -1.060675E-06, -2.626135, 2.6261353492739
1.61999996379018, -1.890491E-06, 0.04833767, 0.0483376719427247 , -2.341628E-06, 0.1665642, 0.166564151661167, -1.053672E-06, -2.673479, 2.67347860336324
1.63999996334314, -1.937744E-06, 0.05058679, 0.0505867861582429 , -2.362608E-06, 0.1124552, 0.112455248857521, -1.048966E-06, -2.705445, 2.70544528961202
1.65999996289611, -1.985414E-06, 0.05174712, 0.0517471209549312 , -2.383538E-06, 0.05801657, 0.0580165684712799, -1.046521E-06, -2.721934, 2.7219340801241
1.67999996244907, -2.033504E-06, 0.05181829, 0.0518182851773153 , -2.404466E-06, 0.003557652, 0.00355765304756904, -1.046374E-06, -2.722946, 2.72294592857381
1.69999996200204, -2.082013E-06, 0.05080603, 0.0508060269484351 , -2.425436E-06, -0.05061352, 0.0506135225877163, -1.0485E-06, -2.708559, 2.70855879783651
1.719999961555, -2.130942E-06, 0.04872219, 0.0487221889663827 , -2.446493E-06, -0.1041924, 0.104192405967825, -1.052877E-06, -2.678944, 2.67894434928915
1.73999996110797, -2.180296E-06, 0.0455846, 0.0455846041962378 , -2.467683E-06, -0.1568794, 0.156879425068236, -1.05947E-06, -2.634351, 2.63435101509116
1.75999996066093, -2.230077E-06, 0.04141698, 0.0414169803862144 , -2.489047E-06, -0.2083818, 0.208381772056186, -1.068236E-06, -2.575117, 2.57511734962486
1.7799999602139, -2.28029E-06, 0.03624868, 0.036248680275876 , -2.510629E-06, -0.2584151, 0.258415102970875, -1.079093E-06, -2.501667, 2.50166654586815
1.79999995976686, -2.330939E-06, 0.03011459, 0.0301145893492385 , -2.532469E-06, -0.3067049, 0.306704878817523, -1.091973E-06, -2.414489, 2.41448879241968
1.81999995931983, -2.382031E-06, 0.02305484, 0.0230548364409528 , -2.554605E-06, -0.3529879, 0.352987945089047, -1.10681E-06, -2.314153, 2.31415343284633
1.8399999588728, -2.433572E-06, 0.01511456, 0.0151145609192177 , -2.577075E-06, -0.3970141, 0.397014081486483, -1.123487E-06, -2.201307, 2.20130681991606
1.85999995842576, -2.485571E-06, 0.006343625, 0.00634362504152496 , -2.599913E-06, -0.4385471, 0.438547104604798, -1.141916E-06, -2.076651, 2.07665109634431
1.87999995797873, -2.538034E-06, -0.003203702, 0.00320370316456517 , -2.623153E-06, -0.4773663, 0.477366328246648, -1.162005E-06, -1.940961, 1.94096124172245
1.89999995753169, -2.59097E-06, -0.01346905, 0.0134690546128736 , -2.646824E-06, -0.5132676, 0.513267636305958, -1.183571E-06, -1.795065, 1.79506540298501
1.91999995708466, -2.644389E-06, -0.02439035, 0.0243903474453117 , -2.670955E-06, -0.5460646, 0.546064615256166, -1.206524E-06, -1.639849, 1.63984894752547
1.93999995663762, -2.698301E-06, -0.03590214, 0.0359021351755369 , -2.695569E-06, -0.5755894, 0.575589418417567, -1.230705E-06, -1.47624, 1.47624015808157
1.95999995619059, -2.752715E-06, -0.047936, 0.0479360037342323 , -2.720689E-06, -0.6016937, 0.601693689829302, -1.256001E-06, -1.305214, 1.30521357059539
1.97999995574355, -2.807641E-06, -0.06042099, 0.0604209900554671 , -2.746334E-06, -0.6242492, 0.62424921990045, -1.282228E-06, -1.127777, 1.12777650356366
1.99999995529652, -2.863092E-06, -0.07328395, 0.0732839480601741 , -2.772519E-06, -0.6431484, 0.643148422247187, -1.309252E-06, -0.9449601, 0.944960117340995
2.01999995484948, -2.919077E-06, -0.08645005, 0.086450047840287 , -2.799257E-06, -0.6583053, 0.658305287367097, -1.336923E-06, -0.7578433, 0.757843255997883
2.03999995440245, -2.975608E-06, -0.09984314, 0.0998431370105693 , -2.826558E-06, -0.6696552, 0.66965520382524, -1.365061E-06, -0.5674958, 0.567495822908136
2.05999995395541, -3.032696E-06, -0.1133862, 0.113386236171748 , -2.854429E-06, -0.6771556, 0.677155613905247, -1.393516E-06, -0.3750205, 0.375020504000392
2.07999995350838, -3.090354E-06, -0.127002, 0.127001956142831 , -2.882872E-06, -0.6807859, 0.680785894400025, -1.422143E-06, -0.181514, 0.181514024740068
2.09999995306134, -3.148592E-06, -0.1406129, 0.140612900292362 , -2.911886E-06, -0.6805472, 0.68054723740247, -1.450735E-06, 0.01193285, 0.0119328499722197
2.11999995261431, -3.207421E-06, -0.1541422, 0.154142156276695 , -2.94147E-06, -0.676463, 0.676463007933336, -1.479168E-06, 0.2042115, 0.204211473470323
2.13999995216727, -3.266853E-06, -0.1675137, 0.167513713272479 , -2.971615E-06, -0.668578, 0.668578028685498, -1.50726E-06, 0.394249, 0.394248962405225
2.15999995172024, -3.326899E-06, -0.1806529, 0.180652871758577 , -3.002312E-06, -0.6569583, 0.656958282000726, -1.534863E-06, 0.5809873, 0.580987334253431
2.1799999512732, -3.38757E-06, -0.1934867, 0.193486690550895 , -3.033549E-06, -0.6416906, 0.641690611846465, -1.561853E-06, 0.7633835, 0.763383507730174
2.19999995082617, -3.448876E-06, -0.2059443, 0.205944329529077 , -3.06531E-06, -0.6228819, 0.622881889350804, -1.588023E-06, 0.9404361, 0.940436124802977
2.21999995037913, -3.510828E-06, -0.2179575, 0.217957496671342 , -3.097575E-06, -0.6006585, 0.600658535965323, -1.613262E-06, 1.111168, 1.11116766929744
2.2399999499321, -3.573434E-06, -0.2294608, 0.229460805682351 , -3.130323E-06, -0.5751653, 0.575165331372196, -1.637432E-06, 1.27466, 1.27466022968397
2.25999994948506, -3.636705E-06, -0.2403921, 0.240392103818745 , -3.163531E-06, -0.5465649, 0.546564936647034, -1.660396E-06, 1.43002, 1.43001973629094
2.27999994903803, -3.700648E-06, -0.2506928, 0.250692844418183 , -3.197172E-06, -0.5150367, 0.51503670216599, -1.682054E-06, 1.576412, 1.57641172409147
2.29999994859099, -3.765273E-06, -0.2603084, 0.260308355120234 , -3.231218E-06, -0.4807752, 0.480775237094293, -1.702256E-06, 1.713073, 1.71307325363244
2.31999994814396, -3.830586E-06, -0.2691882, 0.269188165691928 , -3.265636E-06, -0.4439898, 0.443989813339799, -1.720912E-06, 1.839271, 1.83927118778309
2.33999994769692, -3.896594E-06, -0.2772862, 0.27728623154517 , -3.300394E-06, -0.4049026, 0.404902577413658, -1.737931E-06, 1.954362, 1.95436179637986
2.35999994724989, -3.963303E-06, -0.2845612, 0.284561187056485 , -3.335459E-06, -0.3637474, 0.363747447744403, -1.75321E-06, 2.057756, 2.05775642395094
2.37999994680285, -4.030719E-06, -0.2909766, 0.290976554183267 , -3.370792E-06, -0.3207688, 0.320768773573467, -1.766693E-06, 2.148934, 2.14893364906384
2.39999994635582, -4.098846E-06, -0.296501, 0.296500951080043 , -3.406358E-06, -0.2762198, 0.276219785234474, -1.77829E-06, 2.227449, 2.22744941711497
2.41999994590878, -4.167688E-06, -0.3011082, 0.301108181505436 , -3.442118E-06, -0.2303613, 0.230361282851186, -1.787976E-06, 2.292925, 2.29292511940072
2.43999994546175, -4.237249E-06, -0.3047774, 0.304777383833776 , -3.478032E-06, -0.1834598, 0.18345984819848, -1.795695E-06, 2.345072, 2.34507179260323
2.45999994501472, -4.30753E-06, -0.3074931, 0.307493120462071 , -3.51406E-06, -0.1357865, 0.135786473796539, -1.801402E-06, 2.383669, 2.38366866111823
2.47999994456768, -4.378533E-06, -0.3092454, 0.309245377810004 , -3.550161E-06, -0.08761501, 0.0876150131944849, -1.805074E-06, 2.408573, 2.40857315063544
2.49999994412065, -4.450259E-06, -0.3100298, 0.310029774936191 , -3.586296E-06, -0.03922057, 0.0392205716819083, -1.806745E-06, 2.419722, 2.41972208023139
2.51999994367361, -4.522708E-06, -0.3098473, 0.309847325119602 , -3.622423E-06, 0.009121999, 0.00912199986380144, -1.806336E-06, 2.417129, 2.41712856292792
2.53999994322658, -4.595878E-06, -0.3087045, 0.308704525266526 , -3.658502E-06, 0.05713977, 0.0571397693136322, -1.803937E-06, 2.400888, 2.40088844299384
2.55999994277954, -4.669768E-06, -0.3066133, 0.306613266503609 , -3.694493E-06, 0.1045631, 0.104563117092551, -1.799549E-06, 2.371167, 2.37116742134163
2.57999994233251, -4.744375E-06, -0.3035907, 0.303590714968559 , -3.730357E-06, 0.1511273, 0.151127263949657, -1.793205E-06, 2.328207, 2.32820749282906
2.59999994188547, -4.819696E-06, -0.2996592, 0.299659222403185 , -3.766055E-06, 0.1965739, 0.196573928034619, -1.78494E-06, 2.272333, 2.2723331451423
