time, position, , , velocity, , ,acceleration, , 
, x, y, s, x, y, s, x, y, s, 
0.0199999995529652, 0, 0, 0 , 0, 0, 0, 0, 0, 0
0.0399999991059303, -2.302957E-08, 0.1004463, 0.100446261465552 , -1.214863E-08, -0.09768765, 0.0976876541972168, -6.074313E-07, -4.884383, 4.884382724762
0.0599999986588955, -2.363886E-08, 0.09689763, 0.0968976318836241 , -3.024187E-08, -0.1784322, 0.178432211279872, -9.046623E-07, -4.037228, 4.03722810745249
0.0799999982118607, -2.45905E-08, 0.0917467, 0.091746695339683 , -4.74041E-08, -0.2583475, 0.258347451686863, -8.581113E-07, -3.995762, 3.99576210975656
0.0999999977648258, -2.588788E-08, 0.08501586, 0.0850158631801645 , -6.472645E-08, -0.3371819, 0.337181895971304, -8.661177E-07, -3.941722, 3.94172239303598
0.119999997317791, -2.753507E-08, 0.07673235, 0.0767323523759891 , -8.224551E-08, -0.4146882, 0.41468822956086, -8.759528E-07, -3.875317, 3.87531685829173
0.139999996870756, -2.953684E-08, 0.06692807, 0.0669280737638539 , -9.999702E-08, -0.490624, 0.490624010562907, -8.875759E-07, -3.796789, 3.79678916931163
0.159999996423721, -3.189862E-08, 0.05563958, 0.0556395798921677 , -1.180159E-07, -0.5647526, 0.564752578735364, -9.009448E-07, -3.706429, 3.70642852783214
0.179999995976686, -3.462651E-08, 0.04290795, 0.0429079532623431 , -1.363362E-07, -0.6368436, 0.636843621730819, -9.160125E-07, -3.604552, 3.60455226898205
0.199999995529652, -3.772726E-08, 0.02877867, 0.0287786684930572 , -1.549908E-07, -0.7066741, 0.706674098968523, -9.327294E-07, -3.491524, 3.49152398109449
0.219999995082617, -4.120824E-08, 0.01330146, 0.0133014563471717 , -1.740115E-07, -0.7740287, 0.774028658866902, -9.510352E-07, -3.367728, 3.36772799491896
0.239999994635582, -4.507741E-08, -0.003469866, 0.00346986553661003 , -1.934288E-07, -0.8387008, 0.838700771331809, -9.708685E-07, -3.233606, 3.23360562324538
0.259999994188547, -4.934333E-08, -0.02147757, 0.0214775670320362 , -2.13272E-07, -0.9004929, 0.90049290657046, -9.921592E-07, -3.089607, 3.08960676193253
0.279999993741512, -5.401509E-08, -0.04066019, 0.040660187602079 , -2.335688E-07, -0.9592174, 0.9592174291611, -1.014838E-06, -2.936226, 2.93622612953204
0.299999993294477, -5.910231E-08, -0.06095274, 0.0609527416527558 , -2.543453E-07, -1.014697, 1.01469683647159, -1.038828E-06, -2.77397, 2.77397036552449
0.319999992847443, -6.461508E-08, -0.08228693, 0.08228693157437 , -2.756263E-07, -1.066765, 1.066764831543, -1.064049E-06, -2.6034, 2.60339975357077
0.339999992400408, -7.056397E-08, -0.1045914, 0.104591377079511 , -2.974346E-07, -1.115267, 1.11526656150822, -1.090416E-06, -2.425086, 2.42508649826074
0.359999991953373, -7.695996E-08, -0.1277918, 0.127791821956658 , -3.197914E-07, -1.160058, 1.16005825996403, -1.117839E-06, -2.239585, 2.23958492279081
0.379999991506338, -8.381441E-08, -0.1518114, 0.151811435818695 , -3.42716E-07, -1.201009, 1.20100939273839, -1.14623E-06, -2.047557, 2.04755663871797
0.399999991059303, -9.113904E-08, -0.176571, 0.176570996642136 , -3.66226E-07, -1.238001, 1.23800146579748, -1.175499E-06, -1.849604, 1.84960365295448
0.419999990612268, -9.894585E-08, -0.2019892, 0.201989233493829 , -3.903369E-07, -1.27093, 1.27092957496649, -1.205542E-06, -1.646405, 1.64640545845076
0.439999990165234, -1.072472E-07, -0.227983, 0.227982982993151 , -4.150622E-07, -1.299701, 1.29970133304603, -1.236266E-06, -1.438588, 1.43858790397697
0.459999989718199, -1.160555E-07, -0.2544675, 0.254467517137554 , -4.404136E-07, -1.324238, 1.32423841953285, -1.267573E-06, -1.226854, 1.22685432434148
0.479999989271164, -1.253835E-07, -0.2813569, 0.28135687112811 , -4.664007E-07, -1.344476, 1.34447634220131, -1.299355E-06, -1.011896, 1.01189613342369
0.499999988824129, -1.352442E-07, -0.308564, 0.308564007282287 , -4.930311E-07, -1.360364, 1.3603639602662, -1.331516E-06, -0.7943809, 0.794380903245134
0.519999988377094, -1.456504E-07, -0.3360012, 0.336001187562974 , -5.2031E-07, -1.371865, 1.37186467647562, -1.363946E-06, -0.5750358, 0.575035810472199
0.539999987930059, -1.566153E-07, -0.3635802, 0.363580197095905 , -5.482408E-07, -1.378956, 1.37895584106456, -1.39654E-06, -0.3545582, 0.354558229449161
0.559999987483025, -1.681518E-07, -0.3912127, 0.391212671995199 , -5.76825E-07, -1.381629, 1.38162899017346, -1.429208E-06, -0.1336575, 0.133657455451977
0.57999998703599, -1.80273E-07, -0.4188104, 0.41881039738659 , -6.060615E-07, -1.379889, 1.37988948822035, -1.461825E-06, 0.0869751, 0.0869750976685347
0.599999986588955, -1.92992E-07, -0.4462855, 0.446285486221355 , -6.359475E-07, -1.373757, 1.373757004738, -1.4943E-06, 0.3066242, 0.306624174121683
0.61999998614192, -2.063215E-07, -0.4735507, 0.473550736904189 , -6.664781E-07, -1.363265, 1.36326527595536, -1.52653E-06, 0.5245864, 0.524586439134912
0.639999985694885, -2.202745E-07, -0.5005199, 0.500519931316424 , -6.976461E-07, -1.348462, 1.3484615087511, -1.558402E-06, 0.7401884, 0.740188360215874
0.65999998524785, -2.348634E-07, -0.527108, 0.527108013629966 , -7.294427E-07, -1.329407, 1.32940661907216, -1.589831E-06, 0.9527445, 0.95274448394908
0.679999984800816, -2.501005E-07, -0.5532315, 0.553231477737483 , -7.618569E-07, -1.306175, 1.30617487430595, -1.620708E-06, 1.161587, 1.1615872383129
0.699999984353781, -2.65998E-07, -0.5788085, 0.578808486461701 , -7.948757E-07, -1.278854, 1.2788536548617, -1.650943E-06, 1.366061, 1.36606097221474
0.719999983906746, -2.825677E-07, -0.6037593, 0.603759348392553 , -8.284844E-07, -1.247543, 1.24754309654263, -1.680434E-06, 1.565528, 1.56552791595549
0.739999983459711, -2.99821E-07, -0.6280065, 0.628006458282542 , -8.626663E-07, -1.212356, 1.21235573291809, -1.709094E-06, 1.759368, 1.75936818122947
0.759999983012676, -3.177691E-07, -0.6514748, 0.651474773883897 , -8.97403E-07, -1.173416, 1.17341613769566, -1.736834E-06, 1.94698, 1.94697976112443
0.779999982565641, -3.364225E-07, -0.674092, 0.674091994762505 , -9.326743E-07, -1.13086, 1.1308603286747, -1.763567E-06, 2.12779, 2.12779045105054
0.799999982118607, -3.557917E-07, -0.6957887, 0.695788681507202 , -9.684587E-07, -1.084836, 1.08483552932782, -1.789221E-06, 2.30124, 2.30123996734689
0.819999981671572, -3.758864E-07, -0.7164987, 0.716498672962287 , -1.004733E-06, -1.0355, 1.03549957275439, -1.813692E-06, 2.466798, 2.46679782867498
0.839999981224537, -3.967158E-07, -0.7361591, 0.736159086227524 , -1.041471E-06, -0.9830198, 0.983019828796938, -1.836941E-06, 2.623987, 2.62398719787662
0.859999980777502, -4.182888E-07, -0.7547106, 0.754710555076715 , -1.078649E-06, -0.927574, 0.927574038506181, -1.858865E-06, 2.77229, 2.77228951454225
0.879999980330467, -4.406135E-07, -0.7720975, 0.77209752798093 , -1.116237E-06, -0.8693483, 0.869348287583114, -1.879403E-06, 2.911288, 2.91128754615844
0.899999979883432, -4.636977E-07, -0.7882683, 0.788268268108504 , -1.154207E-06, -0.8085371, 0.808537125588287, -1.898525E-06, 3.040558, 3.0405580997473
0.919999979436398, -4.875483E-07, -0.8031751, 0.803175091743617 , -1.19253E-06, -0.7453425, 0.745342493058205, -1.916146E-06, 3.159732, 3.1597316265112
0.939999978989363, -5.121718E-07, -0.8167745, 0.816774547100228 , -1.231174E-06, -0.6799734, 0.679973363877457, -1.93221E-06, 3.268456, 3.26845645904598
0.959999978542328, -5.37574E-07, -0.8290275, 0.829027473926718 , -1.270108E-06, -0.6126452, 0.612645208836918, -1.946705E-06, 3.366408, 3.3664078712469
0.979999978095293, -5.6376E-07, -0.8398991, 0.839899063110541 , -1.309299E-06, -0.5435788, 0.543578803540853, -1.959546E-06, 3.45332, 3.45332026481684
0.999999977648258, -5.907343E-07, -0.849359, 0.849359035492149 , -1.348714E-06, -0.4729999, 0.472999930383698, -1.970733E-06, 3.528944, 3.5289437770849
1.01999997720122, -6.185006E-07, -0.8573818, 0.857381820678934 , -1.388318E-06, -0.4011383, 0.401138305666465, -1.98022E-06, 3.593081, 3.59308123588617
1.03999997675419, -6.470622E-07, -0.8639464, 0.863946378231291 , -1.428078E-06, -0.3282271, 0.328227102759607, -1.987974E-06, 3.64556, 3.64556026458794
1.05999997630715, -6.764213E-07, -0.8690364, 0.869036376476551 , -1.467958E-06, -0.2545021, 0.254502058033408, -1.993988E-06, 3.686252, 3.6862523555761
1.07999997586012, -7.065798E-07, -0.8726404, 0.872640371322918 , -1.507923E-06, -0.1802007, 0.180200725800148, -1.998256E-06, 3.715067, 3.715066671372
1.09999997541308, -7.375385E-07, -0.8747516, 0.874751627445532 , -1.547938E-06, -0.1055619, 0.105561882268811, -2.000752E-06, 3.731942, 3.73194217681938
1.11999997496605, -7.692979E-07, -0.8753681, 0.875368058681826 , -1.587967E-06, -0.03082448, 0.0308244824818517, -2.001474E-06, 3.73687, 3.73687005043083
1.13999997451901, -8.018574E-07, -0.8744926, 0.874492585659395 , -1.627976E-06, 0.04377292, 0.0437729209964217, -2.000439E-06, 3.72987, 3.72987031936699
1.15999997407198, -8.352159E-07, -0.8721327, 0.87213271856348 , -1.667929E-06, 0.1179931, 0.117993056785928, -1.997648E-06, 3.711007, 3.71100687980706
1.17999997362494, -8.693718E-07, -0.8683007, 0.868300735950905 , -1.707791E-06, 0.1916005, 0.191600486643773, -1.993118E-06, 3.680372, 3.68037152290398
1.19999997317791, -9.043223E-07, -0.8630134, 0.863013446331498 , -1.747529E-06, 0.2643625, 0.264362543827111, -1.986871E-06, 3.638103, 3.63810300827081
1.21999997273088, -9.400645E-07, -0.8562924, 0.856292426586667 , -1.787108E-06, 0.33605, 0.336050003771765, -1.978935E-06, 3.584373, 3.58437299728448
1.23999997228384, -9.765944E-07, -0.8481637, 0.848163664341535 , -1.826494E-06, 0.4064378, 0.406437784437469, -1.969318E-06, 3.519389, 3.51938915252741
1.25999997183681, -1.013908E-06, -0.8386576, 0.838657557964938 , -1.865656E-06, 0.4753056, 0.47530558705696, -1.958085E-06, 3.44339, 3.44339013099726
1.27999997138977, -1.051999E-06, -0.8278088, 0.827808797360135 , -1.904561E-06, 0.5424389, 0.54243886471129, -1.945256E-06, 3.356664, 3.3566639423376
1.29999997094274, -1.090862E-06, -0.8156562, 0.815656185150876 , -1.943179E-06, 0.6076291, 0.607629120352991, -1.930897E-06, 3.259513, 3.25951290130672
1.3199999704957, -1.130492E-06, -0.8022427, 0.802242696286044 , -1.981479E-06, 0.6706747, 0.670674741271085, -1.915043E-06, 3.152281, 3.15228104591428
1.33999997004867, -1.170881E-06, -0.7876151, 0.787615060807145 , -2.019434E-06, 0.7313816, 0.731381595137523, -1.89774E-06, 3.035343, 3.03534269332945
1.35999996960163, -1.212021E-06, -0.7718238, 0.771823763848303 , -2.057016E-06, 0.7895635, 0.789563536646661, -1.879096E-06, 2.909097, 2.90909719467224
1.3799999691546, -1.253905E-06, -0.7549229, 0.754922926426975 , -2.094198E-06, 0.8450433, 0.845043301584931, -1.859098E-06, 2.773988, 2.77398824691835
1.39999996870756, -1.296524E-06, -0.7369699, 0.736969888211437 , -2.130956E-06, 0.8976525, 0.897652506830837, -1.837896E-06, 2.63046, 2.63046026229923
1.41999996826053, -1.339869E-06, -0.7180252, 0.718025207520781 , -2.167266E-06, 0.9472327, 0.947232723238563, -1.815499E-06, 2.479011, 2.47901082038946
1.43999996781349, -1.383932E-06, -0.6981525, 0.698152482510985 , -2.203106E-06, 0.9936355, 0.993635535242616, -1.792012E-06, 2.320141, 2.32014060020516
1.45999996736646, -1.428701E-06, -0.677418, 0.677417993547039 , -2.238457E-06, 1.036723, 1.03672313690427, -1.767512E-06, 2.15438, 2.15438008308483
1.47999996691942, -1.474167E-06, -0.6558906, 0.655890643598306 , -2.273297E-06, 1.076369, 1.07636880874874, -1.742046E-06, 1.982284, 1.98228359222489
1.49999996647239, -1.520319E-06, -0.6336415, 0.63364148140136 , -2.307613E-06, 1.112457, 1.11245727539302, -1.715762E-06, 1.804423, 1.80442333221517
1.51999996602535, -1.567147E-06, -0.6107438, 0.610743761064633 , -2.341387E-06, 1.144885, 1.14488458633662, -1.688704E-06, 1.621366, 1.62136554718106
1.53999996557832, -1.614639E-06, -0.5872726, 0.587272584440544 , -2.374606E-06, 1.173559, 1.17355906963589, -1.660965E-06, 1.433724, 1.43372416496373
1.55999996513128, -1.662784E-06, -0.5633045, 0.563304543497632 , -2.407258E-06, 1.198401, 1.19840133190397, -1.632611E-06, 1.242113, 1.24211311340439
1.57999996468425, -1.71157E-06, -0.5389177, 0.538917660715914 , -2.439334E-06, 1.219345, 1.21934461593872, -1.60378E-06, 1.047164, 1.04716420173768
1.59999996423721, -1.760987E-06, -0.514191, 0.514190971854364 , -2.470826E-06, 1.236334, 1.23633432388553, -1.574585E-06, 0.8494854, 0.849485397340326
1.61999996379018, -1.811021E-06, -0.4892044, 0.489204406741633 , -2.501726E-06, 1.249329, 1.24932897091162, -1.545015E-06, 0.6497324, 0.649732351304938
1.63999996334314, -1.861662E-06, -0.4640384, 0.464038401845852 , -2.532032E-06, 1.2583, 1.25829994678752, -1.515298E-06, 0.4485488, 0.448548793795284
1.65999996289611, -1.912897E-06, -0.4387738, 0.438773781065342 , -2.561741E-06, 1.263231, 1.26323139667771, -1.485432E-06, 0.2465725, 0.24657249451131
1.67999996244907, -1.964714E-06, -0.4134914, 0.41349136829843 , -2.590851E-06, 1.26412, 1.26412045955923, -1.455533E-06, 0.04445314, 0.0444531440973156
1.69999996200204, -2.017101E-06, -0.3882718, 0.388271808629507 , -2.619366E-06, 1.260977, 1.260977387431, -1.425735E-06, -0.1571536, 0.157153606421262
1.719999961555, -2.070047E-06, -0.3631953, 0.363195300108133 , -2.647288E-06, 1.253825, 1.25382483005803, -1.396086E-06, -0.3576279, 0.357627868655069
1.73999996110797, -2.12354E-06, -0.3383413, 0.338341325528133 , -2.674622E-06, 1.242698, 1.24269819259931, -1.366709E-06, -0.5563319, 0.556331872941742
1.75999996066093, -2.177567E-06, -0.3137884, 0.313788414009021 , -2.701375E-06, 1.227646, 1.2276459932357, -1.337673E-06, -0.75261, 0.752609968186614
1.7799999602139, -2.232118E-06, -0.2896138, 0.289613842972774 , -2.727557E-06, 1.208729, 1.20872867107699, -1.309104E-06, -0.9458661, 0.94586610794158
1.79999995976686, -2.287182E-06, -0.2658935, 0.265893459329905 , -2.753179E-06, 1.186019, 1.18601858616195, -1.281069E-06, -1.135504, 1.13550424575878
1.81999995931983, -2.342747E-06, -0.2427014, 0.242701441060883 , -2.778252E-06, 1.1596, 1.15960037708615, -1.253659E-06, -1.32091, 1.32091045379698
1.8399999588728, -2.398803E-06, -0.22011, 0.220110014094073 , -2.802791E-06, 1.12957, 1.12957024574628, -1.226954E-06, -1.501507, 1.50150656700184
1.85999995842576, -2.455339E-06, -0.1981893, 0.198189303294132 , -2.826812E-06, 1.096035, 1.09603524208433, -1.201056E-06, -1.67675, 1.6767501831059
1.87999995797873, -2.512345E-06, -0.177007, 0.177007034438797 , -2.850333E-06, 1.059114, 1.05911350250628, -1.176022E-06, -1.846087, 1.84608697891273
1.89999995753169, -2.569813E-06, -0.1566284, 0.156628355404955 , -2.873371E-06, 1.018934, 1.01893353462624, -1.151909E-06, -2.008998, 2.00899839401278
1.91999995708466, -2.627732E-06, -0.1371157, 0.1371156722559 , -2.895948E-06, 0.9756336, 0.975633621220118, -1.128865E-06, -2.164996, 2.1649956703189
1.93999995663762, -2.686093E-06, -0.1185284, 0.118528433174529 , -2.918086E-06, 0.9293618, 0.929361820225528, -1.106901E-06, -2.31359, 2.31359004974392
1.95999995619059, -2.74489E-06, -0.1009229, 0.100922912396565 , -2.939808E-06, 0.8802751, 0.880275130276821, -1.086084E-06, -2.454334, 2.45433449745202
1.97999995574355, -2.804112E-06, -0.08435212, 0.0843521208037114 , -2.961138E-06, 0.828539, 0.828538954263257, -1.066508E-06, -2.586809, 2.58680891990684
1.99999995529652, -2.863754E-06, -0.06886558, 0.0688655824064604 , -2.982102E-06, 0.7743267, 0.774326682096502, -1.048193E-06, -2.710614, 2.71061372756978
2.01999995484948, -2.923809E-06, -0.0545092, 0.0545092039594401 , -3.002726E-06, 0.7178189, 0.717818856245599, -1.031231E-06, -2.825391, 2.82539129257221
2.03999995440245, -2.984269E-06, -0.04132514, 0.041325137126911 , -3.023039E-06, 0.6592032, 0.659203231341618, -1.015644E-06, -2.930781, 2.93078136444109
2.05999995395541, -3.045131E-06, -0.02935167, 0.0293516685903157 , -3.043069E-06, 0.5986732, 0.598673164852247, -1.00149E-06, -3.026503, 3.02650332450883
2.07999995350838, -3.106388E-06, -0.0186231, 0.0186231027154085 , -3.062845E-06, 0.5364277, 0.536427736291093, -9.888026E-07, -3.112272, 3.11227154731766
2.09999995306134, -3.168036E-06, -0.009169675, 0.009169675957057 , -3.082398E-06, 0.4726708, 0.472670793543376, -9.776272E-07, -3.187847, 3.18784713745132
2.11999995261431, -3.230071E-06, -0.001017462, 0.00101746677441712 , -3.101757E-06, 0.4076104, 0.407610416424155, -9.679752E-07, -3.253019, 3.25301885604873
2.13999995216727, -3.29249E-06, 0.005811707, 0.00581170804930589 , -3.120956E-06, 0.3414582, 0.341458171620327, -9.599262E-07, -3.307612, 3.30761241912856
2.15999995172024, -3.35529E-06, 0.01130028, 0.0113002802569987 , -3.140024E-06, 0.2744284, 0.27442836763271, -9.534233E-07, -3.35149, 3.35149025917067
2.1799999512732, -3.41847E-06, 0.01543503, 0.0154350347877178 , -3.158995E-06, 0.2067374, 0.206737428927715, -9.485575E-07, -3.384547, 3.3845469951631
2.19999995082617, -3.482028E-06, 0.01820711, 0.018207110797534 , -3.1779E-06, 0.1386033, 0.138603284991456, -9.452606E-07, -3.406707, 3.40670728683485
2.21999995037913, -3.545964E-06, 0.01961201, 0.0196120071636554 , -3.196772E-06, 0.07024452, 0.070244520975375, -9.436008E-07, -3.417938, 3.41793823242201
2.2399999499321, -3.610277E-06, 0.01964961, 0.0196496083923806 , -3.215644E-06, 0.001879737, 0.00187973953160047, -9.435666E-07, -3.418239, 3.41823935508741
2.25999994948506, -3.674968E-06, 0.01832415, 0.0183241520036833 , -3.234547E-06, -0.06627311, 0.0662731082036661, -9.451355E-07, -3.407642, 3.40764236450208
2.27999994903803, -3.740038E-06, 0.01564421, 0.0156442080438415 , -3.253513E-06, -0.1339975, 0.133997470179955, -9.483074E-07, -3.386218, 3.38621807098402
2.29999994859099, -3.805489E-06, 0.01162264, 0.0116226372019747 , -3.272574E-06, -0.2010788, 0.201078832176136, -9.530481E-07, -3.354068, 3.35406827926649
2.31999994814396, -3.871325E-06, 0.006276528, 0.00627652907925239 , -3.291761E-06, -0.2673054, 0.267305433770421, -9.593805E-07, -3.31133, 3.31133008003249
2.33999994769692, -3.937547E-06, -0.0003728489, 0.000372869730201541 , -3.311106E-06, -0.3324688, 0.332468837516106, -9.672476E-07, -3.25817, 3.25817036628737
2.35999994724989, -4.00416E-06, -0.008300139, 0.0083001396032684 , -3.330638E-06, -0.3963648, 0.396364778294252, -9.766154E-07, -3.194797, 3.19479703903213
2.37999994680285, -4.071167E-06, -0.01747601, 0.017476005953898 , -3.350387E-06, -0.4587936, 0.458793640148952, -9.874384E-07, -3.121443, 3.12144327163712
2.39999994635582, -4.138575E-06, -0.02786723, 0.0278672262374056 , -3.370382E-06, -0.5195611, 0.51956105233332, -9.997393E-07, -3.038371, 3.03837060928361
2.41999994590878, -4.206388E-06, -0.0394368, 0.0394367987670678 , -3.39065E-06, -0.5784786, 0.578478634367389, -1.013393E-06, -2.945879, 2.9458792209627
2.43999994546175, -4.274612E-06, -0.05214408, 0.052144084300967 , -3.411219E-06, -0.6353645, 0.635364472875216, -1.028434E-06, -2.844292, 2.84429192543048
2.45999994501472, -4.343255E-06, -0.06594495, 0.0659449474453688 , -3.432113E-06, -0.6900437, 0.69004368782897, -1.044737E-06, -2.733961, 2.7339608669283
2.47999994456768, -4.412322E-06, -0.08079193, 0.0807919279945742 , -3.453359E-06, -0.7423491, 0.742349147804663, -1.06229E-06, -2.615273, 2.61527299881003
2.49999994412065, -4.481821E-06, -0.09663436, 0.0966343582715799 , -3.474979E-06, -0.7921215, 0.792121529586785, -1.081003E-06, -2.488619, 2.48861908912682
2.51999994367361, -4.551761E-06, -0.1134186, 0.113418564291738 , -3.496996E-06, -0.8392104, 0.839210391051903, -1.100852E-06, -2.354443, 2.35444307327296
2.53999994322658, -4.62215E-06, -0.131088, 0.131088048301169 , -3.519431E-06, -0.8834741, 0.883474111564017, -1.121737E-06, -2.213186, 2.21318602561979
2.55999994277954, -4.692996E-06, -0.1495837, 0.149583652689166 , -3.542303E-06, -0.9247806, 0.924780607230295, -1.143599E-06, -2.065325, 2.06532478332551
2.57999994233251, -4.764308E-06, -0.1688438, 0.168843805857165 , -3.56563E-06, -0.9630077, 0.96300768852894, -1.16637E-06, -1.911354, 1.91135406494176
2.59999994188547, -4.836097E-06, -0.1888047, 0.188804671230264 , -3.58943E-06, -0.9980432, 0.998043179518479, -1.18996E-06, -1.751775, 1.75177454948466
2.61999994143844, -4.908371E-06, -0.2094004, 0.209400370774575 , -3.613716E-06, -1.029786, 1.0297856330935, -1.2143E-06, -1.587123, 1.58712267875718
