time, position, , , velocity, , ,acceleration, , 
, x, y, s, x, y, s, x, y, s, 
0.0199999995529652, 0, 0, 0 , 0, 0, 0, 0, 0, 0
0.0399999991059303, -2.303122E-08, 0.1004596, 0.100459620356562 , -1.223114E-08, -0.0970196, 0.0970195978879936, -6.115568E-07, -4.85098, 4.85097980499271
0.0599999986588955, -2.375139E-08, 0.09766224, 0.0976622402668028 , -3.578566E-08, -0.1408702, 0.140870243310933, -1.177726E-06, -2.192532, 2.19253230094941
0.0799999982118607, -2.492604E-08, 0.094021, 0.0940209999680552 , -5.855445E-08, -0.1828628, 0.182862818241129, -1.138439E-06, -2.099629, 2.09962868690522
0.0999999977648258, -2.656204E-08, 0.08958186, 0.0895818620920221 , -8.165748E-08, -0.2225975, 0.222597464919105, -1.155151E-06, -1.986732, 1.9867323637012
0.119999997317791, -2.866732E-08, 0.08439809, 0.0843980908393909 , -1.0515E-07, -0.2597011, 0.25970107316973, -1.174625E-06, -1.855181, 1.85518050193824
0.139999996870756, -3.12508E-08, 0.07852969, 0.0785296931862893 , -1.290826E-07, -0.2938299, 0.293829917907743, -1.196633E-06, -1.706442, 1.70644223690075
0.159999996423721, -3.432228E-08, 0.07204279, 0.0720427930355154 , -1.535013E-07, -0.3246733, 0.324673295021093, -1.220932E-06, -1.542169, 1.5421688556676
0.179999995976686, -3.789238E-08, 0.06500891, 0.0650089085102192 , -1.784465E-07, -0.3519563, 0.351956337690399, -1.247261E-06, -1.364152, 1.36415219307003
0.199999995529652, -4.197238E-08, 0.05750426, 0.0575042553246174 , -2.039532E-07, -0.3754423, 0.375442326068934, -1.275336E-06, -1.174299, 1.17429947853158
0.219999995082617, -4.657414E-08, 0.04960892, 0.0496089197695474 , -2.300505E-07, -0.3949348, 0.394934773445196, -1.304863E-06, -0.9746224, 0.974622368813435
0.239999994635582, -5.170996E-08, 0.04140602, 0.0414060242474402 , -2.567611E-07, -0.410279, 0.410279035568318, -1.335533E-06, -0.7672131, 0.767213106156558
0.259999994188547, -5.739247E-08, 0.03298091, 0.0329809077084564 , -2.841017E-07, -0.4213634, 0.421363413333989, -1.367027E-06, -0.5542189, 0.554218888284462
0.279999993741512, -6.36345E-08, 0.02442023, 0.0244202315808172 , -3.120822E-07, -0.42812, 0.428119957447166, -1.399025E-06, -0.3378272, 0.337827205660856
0.299999993294477, -7.044893E-08, 0.01581112, 0.0158111229540487 , -3.407061E-07, -0.4305245, 0.430524528026716, -1.431197E-06, -0.1202285, 0.120228528984959
0.319999992847443, -7.784858E-08, 0.007240294, 0.00724029354792962 , -3.699705E-07, -0.4285969, 0.428596913814704, -1.463222E-06, 0.09638071, 0.0963807106129137
0.339999992400408, -8.58461E-08, -0.001206818, 0.001206818272619 , -3.998663E-07, -0.4223997, 0.422399699688147, -1.494786E-06, 0.3098607, 0.309860706332951
0.359999991953373, -9.445382E-08, -0.00944687, 0.00944686960476173 , -4.303778E-07, -0.4120377, 0.412037730217205, -1.525575E-06, 0.5180985, 0.518098473551135
0.379999991506338, -1.036836E-07, -0.01739944, 0.0173994395884981 , -4.614834E-07, -0.3976565, 0.397656500339776, -1.555284E-06, 0.7190615, 0.719061493875278
0.399999991059303, -1.135468E-07, -0.02498779, 0.0249877944591241 , -4.931562E-07, -0.3794401, 0.379440128803574, -1.583639E-06, 0.9108186, 0.910818576814121
0.419999990612268, -1.240542E-07, -0.03213963, 0.0321396328511248 , -5.253635E-07, -0.3576094, 0.357609421015172, -1.610363E-06, 1.091535, 1.0915354490292
0.439999990165234, -1.352156E-07, -0.03878773, 0.038787733763692 , -5.580673E-07, -0.3324189, 0.332418918610088, -1.635192E-06, 1.259525, 1.25952517986404
0.459999989718199, -1.470401E-07, -0.0448706, 0.0448706001045729 , -5.912257E-07, -0.3041543, 0.304154276848414, -1.657918E-06, 1.413232, 1.41323208808996
0.479999989271164, -1.59536E-07, -0.050333, 0.0503330044450904 , -6.247922E-07, -0.2731293, 0.273129284382581, -1.678325E-06, 1.55125, 1.55124962329955
0.499999988824129, -1.727104E-07, -0.0551265, 0.0551264956596219 , -6.587168E-07, -0.2396817, 0.239681720734548, -1.696233E-06, 1.672378, 1.67237818241205
0.519999988377094, -1.865693E-07, -0.0592098, 0.0592097975316603 , -6.929466E-07, -0.2041707, 0.204170703889115, -1.711487E-06, 1.775551, 1.77555084228598
0.539999987930059, -2.011179E-07, -0.06254914, 0.0625491440299406 , -7.274259E-07, -0.1669721, 0.166972100736295, -1.723967E-06, 1.85993, 1.85993015766224
0.559999987483025, -2.163598E-07, -0.06511857, 0.0651185736063737 , -7.620972E-07, -0.1284751, 0.1284751296066, -1.733562E-06, 1.924849, 1.92484855651934
0.57999998703599, -2.322979E-07, -0.06690008, 0.066900081932948 , -7.969016E-07, -0.08907782, 0.0890778154170396, -1.740224E-06, 1.969866, 1.96986579895096
0.599999986588955, -2.489334E-07, -0.06788372, 0.0678837150339876 , -8.317795E-07, -0.04918335, 0.0491833537887336, -1.743891E-06, 1.994723, 1.99472308158951
0.61999998614192, -2.662669E-07, -0.0680676, 0.0680676028137647 , -8.66671E-07, -0.009195939, 0.00919593874723771, -1.744579E-06, 1.999371, 1.99937081337051
0.639999985694885, -2.842972E-07, -0.06745791, 0.0674579143530161 , -9.015171E-07, 0.03048334, 0.0304833352699073, -1.742302E-06, 1.983964, 1.98396372795182
0.65999998524785, -3.030224E-07, -0.06606867, 0.0660686716444289 , -9.362593E-07, 0.06946076, 0.0694607645336308, -1.737112E-06, 1.948871, 1.94887149334031
0.679999984800816, -3.224392E-07, -0.06392158, 0.0639215782292869 , -9.708411E-07, 0.1073531, 0.107353061441997, -1.729092E-06, 1.894615, 1.89461493492205
0.699999984353781, -3.425434E-07, -0.06104571, 0.0610457137236669 , -1.005208E-06, 0.1437922, 0.143792182210621, -1.718354E-06, 1.821956, 1.82195603847585
0.719999983906746, -3.633295E-07, -0.05747714, 0.0574771352123777 , -1.039308E-06, 0.1784281, 0.178428068760084, -1.705013E-06, 1.731794, 1.73179435730064
0.739999983459711, -3.847914E-07, -0.05325847, 0.0532584711923195 , -1.073094E-06, 0.2109322, 0.210932224991667, -1.689267E-06, 1.625208, 1.62520790100185
0.759999983012676, -4.069218E-07, -0.04843845, 0.0484384484606192 , -1.106519E-06, 0.2410007, 0.241000667216934, -1.671248E-06, 1.503422, 1.50342214107606
0.779999982565641, -4.297126E-07, -0.04307129, 0.043071292342899 , -1.139543E-06, 0.2683569, 0.268356919291055, -1.65121E-06, 1.367813, 1.3678126335154
0.799999982118607, -4.531552E-07, -0.03721619, 0.037216193976777 , -1.172129E-06, 0.2927544, 0.292754441502057, -1.62932E-06, 1.219876, 1.21987617015947
0.819999981671572, -4.772402E-07, -0.03093661, 0.0309366080946778 , -1.204247E-06, 0.3139787, 0.313978731634542, -1.605872E-06, 1.061215, 1.06121456623199
0.839999981224537, -5.019575E-07, -0.02429961, 0.02429961227399 , -1.235868E-06, 0.3318492, 0.331849217417157, -1.581071E-06, 0.8935243, 0.893524289132563
0.859999980777502, -5.272969E-07, -0.01737519, 0.0173751935442827 , -1.266972E-06, 0.3462206, 0.346220642330581, -1.555208E-06, 0.7185712, 0.718571245672002
0.879999980330467, -5.532478E-07, -0.0102355, 0.0102355033308776 , -1.297543E-06, 0.3569843, 0.356984257700417, -1.528537E-06, 0.5381808, 0.538180768492008
0.899999979883432, -5.797992E-07, -0.00295413, 0.00295412965220732 , -1.32757E-06, 0.3640684, 0.364068418743647, -1.501337E-06, 0.3542081, 0.354208052161537
0.919999979436398, -6.069401E-07, 0.004394657, 0.0043946574861207 , -1.357047E-06, 0.3674391, 0.367439091208103, -1.473876E-06, 0.1685336, 0.168533623224981
0.939999978989363, -6.346597E-07, 0.01173666, 0.0117366565563017 , -1.385977E-06, 0.3670997, 0.36709967255854, -1.44646E-06, -0.01697093, 0.0169709325453152
0.959999978542328, -6.629469E-07, 0.01899847, 0.0189984738942419 , -1.414363E-06, 0.3630906, 0.363090604546441, -1.419335E-06, -0.2004534, 0.200453400616902
0.979999978095293, -6.917913E-07, 0.02610825, 0.0261082500310997 , -1.442219E-06, 0.3554889, 0.355488866570537, -1.392772E-06, -0.3800869, 0.380086898806263
0.999999977648258, -7.211825E-07, 0.03299638, 0.0329963825721875 , -1.469559E-06, 0.3444064, 0.344406425956047, -1.367033E-06, -0.554122, 0.554122030736702
1.01999997720122, -7.511106E-07, 0.03959616, 0.0395961627435399 , -1.496407E-06, 0.3299889, 0.329988867047842, -1.34238E-06, -0.7208779, 0.720877945424376
1.03999997675419, -7.815664E-07, 0.04584445, 0.0458444468743665 , -1.522788E-06, 0.3124139, 0.312413930896656, -1.319046E-06, -0.8787468, 0.878746807576216
1.05999997630715, -8.12541E-07, 0.05168223, 0.0516822300915218 , -1.548732E-06, 0.2918891, 0.291889071468647, -1.297229E-06, -1.026243, 1.02624297142111
1.07999997586012, -8.440265E-07, 0.05705522, 0.057055216288849 , -1.574276E-06, 0.2686491, 0.268649071459614, -1.277164E-06, -1.162, 1.16200006008218
1.09999997541308, -8.760156E-07, 0.0619143, 0.0619142986896022 , -1.599456E-06, 0.2429536, 0.242953628306885, -1.259002E-06, -1.284772, 1.28477215766968
1.11999997496605, -9.085019E-07, 0.066216, 0.06621599943069 , -1.624314E-06, 0.2150845, 0.215084508067542, -1.242933E-06, -1.393456, 1.3934561014181
1.13999997451901, -9.414799E-07, 0.06992285, 0.0699228495422804 , -1.648896E-06, 0.1853422, 0.185342162854854, -1.229091E-06, -1.487117, 1.48711729049733
1.15999997407198, -9.749448E-07, 0.07300372, 0.0730037167733443 , -1.673248E-06, 0.1540431, 0.154043093332795, -1.217575E-06, -1.564954, 1.56495356559801
1.17999997362494, -1.008893E-06, 0.07543404, 0.0754340440102334 , -1.697418E-06, 0.1215159, 0.121515929710799, -1.208508E-06, -1.626358, 1.62635827064559
1.19999997317791, -1.043322E-06, 0.07719602, 0.0771960169147423 , -1.721456E-06, 0.0880983, 0.0880983025003774, -1.20192E-06, -1.670881, 1.67088139057203
1.21999997273088, -1.078231E-06, 0.07827869, 0.0782786905839793 , -1.745414E-06, 0.05413364, 0.0541336387677243, -1.197873E-06, -1.698233, 1.69823324680371
1.23999997228384, -1.113617E-06, 0.07867804, 0.0786780417044296 , -1.769342E-06, 0.01996717, 0.0199671686479577, -1.196389E-06, -1.708324, 1.70832359790844
1.25999997183681, -1.149483E-06, 0.07839689, 0.0783968940461506 , -1.79329E-06, -0.01405723, 0.0140572340440197, -1.197435E-06, -1.70122, 1.70122015476269
1.27999997138977, -1.185829E-06, 0.07744488, 0.0774448812098691 , -1.81731E-06, -0.04760057, 0.0476005673755418, -1.200993E-06, -1.677167, 1.67716670036359
1.29999997094274, -1.222658E-06, 0.07583824, 0.0758382380107256 , -1.84145E-06, -0.08033206, 0.0803320557090101, -1.20699E-06, -1.636575, 1.63657450676009
1.3199999704957, -1.259973E-06, 0.0735996, 0.0735995993126 , -1.865757E-06, -0.1119323, 0.111932277694993, -1.215352E-06, -1.580011, 1.58001112937974
1.33999997004867, -1.297779E-06, 0.07075767, 0.0707576722025676 , -1.890276E-06, -0.1420965, 0.142096459878143, -1.22597E-06, -1.508209, 1.50820910930683
1.35999996960163, -1.33608E-06, 0.06734693, 0.0673469305170983 , -1.915051E-06, -0.1705371, 0.170537099252963, -1.238726E-06, -1.422032, 1.42203199863488
1.3799999691546, -1.374882E-06, 0.06340719, 0.0634071901589681 , -1.94012E-06, -0.1969869, 0.196986868987101, -1.253443E-06, -1.322489, 1.32248854637205
1.39999996870756, -1.414193E-06, 0.05898317, 0.0589831695130129 , -1.965519E-06, -0.2212011, 0.221201121815831, -1.269962E-06, -1.210713, 1.21071267128057
1.41999996826053, -1.454018E-06, 0.05412397, 0.0541239716307922 , -1.991281E-06, -0.2429599, 0.242959886797482, -1.288106E-06, -1.087938, 1.08793830871658
1.43999996781349, -1.494367E-06, 0.04888257, 0.0488825701405538 , -2.017435E-06, -0.26207, 0.262070029981749, -1.307694E-06, -0.9555072, 0.955507159233988
1.45999996736646, -1.535247E-06, 0.04331523, 0.0433152318272867 , -2.044005E-06, -0.2783669, 0.278366923339719, -1.328499E-06, -0.8148447, 0.814844667912613
1.47999996691942, -1.576667E-06, 0.03748092, 0.0374809205863693 , -2.071011E-06, -0.2917155, 0.291715532548627, -1.350281E-06, -0.6674305, 0.667430460454399
1.49999996647239, -1.618637E-06, 0.03144069, 0.0314406864761729 , -2.098468E-06, -0.3020119, 0.302011907107968, -1.372848E-06, -0.5148187, 0.514818727971954
1.51999996602535, -1.661164E-06, 0.02525702, 0.0252570231060088 , -2.126387E-06, -0.3091835, 0.30918347836272, -1.395972E-06, -0.3585786, 0.358578562739229
1.53999996557832, -1.70426E-06, 0.01899323, 0.0189932287503964 , -2.154774E-06, -0.3131898, 0.313189774759076, -1.419357E-06, -0.2003148, 0.200314819817803
1.55999996513128, -1.747933E-06, 0.01271278, 0.012712784231665 , -2.18363E-06, -0.3140225, 0.314022511251412, -1.442811E-06, -0.04163682, 0.0416368246328475
1.57999996468425, -1.792192E-06, 0.006478691, 0.00647869125582773 , -2.212953E-06, -0.3117049, 0.311704933651197, -1.466117E-06, 0.1158789, 0.115878880033231
1.59999996423721, -1.837046E-06, 0.0003528534, 0.000352858225510205 , -2.242733E-06, -0.3062919, 0.30629187823163, -1.488991E-06, 0.2706528, 0.27065277100019
1.61999996379018, -1.882505E-06, -0.005604513, 0.00560451284001807 , -2.272957E-06, -0.2978683, 0.297868311413854, -1.511239E-06, 0.4211783, 0.421178340914577
1.63999996334314, -1.928578E-06, -0.01133549, 0.0113354904355096 , -2.30361E-06, -0.2865489, 0.286548912534437, -1.532658E-06, 0.5659699, 0.565969944002319
1.65999996289611, -1.975271E-06, -0.016785, 0.0167850033611025 , -2.334671E-06, -0.2724757, 0.272475659857262, -1.553008E-06, 0.7036626, 0.703662633897588
1.67999996244907, -2.022593E-06, -0.02190134, 0.02190134311121 , -2.366113E-06, -0.255817, 0.255816996108507, -1.57213E-06, 0.8329332, 0.832933187486225
1.69999996200204, -2.070552E-06, -0.02663665, 0.0266366527289242 , -2.39791E-06, -0.2367655, 0.236765503895505, -1.589819E-06, 0.9525746, 0.952574610711471
1.719999961555, -2.119152E-06, -0.03094736, 0.0309473649392891 , -2.430028E-06, -0.2155356, 0.21553562582909, -1.605906E-06, 1.061494, 1.06149387359741
1.73999996110797, -2.168401E-06, -0.0347946, 0.0347945988853927 , -2.462434E-06, -0.1923617, 0.19236171247151, -1.620299E-06, 1.158696, 1.15869569778556
1.75999996066093, -2.218303E-06, -0.0381445, 0.0381444991279948 , -2.49509E-06, -0.167495, 0.167494952697264, -1.632793E-06, 1.243338, 1.24333798885453
1.7799999602139, -2.268862E-06, -0.04096852, 0.0409685224922917 , -2.527957E-06, -0.1412011, 0.141201078914383, -1.643355E-06, 1.314694, 1.31469368934734
1.79999995976686, -2.320081E-06, -0.04324367, 0.0432436727609739 , -2.560994E-06, -0.1137576, 0.113757595448711, -1.651858E-06, 1.372174, 1.37217426300148
1.81999995931983, -2.371965E-06, -0.04495268, 0.0449526832133476 , -2.594159E-06, -0.08545049, 0.085450485388079, -1.658248E-06, 1.415356, 1.41535556316473
1.8399999588728, -2.424513E-06, -0.04608412, 0.0460841172081238 , -2.627408E-06, -0.05657165, 0.0565716475858472, -1.662443E-06, 1.443942, 1.44394195079899
1.85999995842576, -2.477727E-06, -0.04663244, 0.0466324352386209 , -2.660698E-06, -0.02741581, 0.0274158121446435, -1.664512E-06, 1.457792, 1.45779180526828
1.87999995797873, -2.531606E-06, -0.04659798, 0.0465979837568855 , -2.693986E-06, 0.001722634, 0.00172263594518191, -1.664387E-06, 1.456922, 1.4569222927103
1.89999995753169, -2.586151E-06, -0.04598694, 0.0459869355690485 , -2.727227E-06, 0.03055237, 0.0305523724581093, -1.66209E-06, 1.441487, 1.44148695468998
1.91999995708466, -2.641358E-06, -0.04481117, 0.0448111743513373 , -2.760382E-06, 0.05878797, 0.0587879717998073, -1.657713E-06, 1.41178, 1.41177999973394
1.93999995663762, -2.697227E-06, -0.04308812, 0.0430881158361637 , -2.793407E-06, 0.08615291, 0.0861529112315047, -1.651267E-06, 1.368247, 1.36824703216652
1.95999995619059, -2.753752E-06, -0.04084048, 0.0408404768441662 , -2.826264E-06, 0.112382, 0.112381950056329, -1.642866E-06, 1.311452, 1.3114519119273
1.97999995574355, -2.81093E-06, -0.03809599, 0.0380959921622184 , -2.858917E-06, 0.1372242, 0.137224167615154, -1.632611E-06, 1.242111, 1.24211084842789
1.99999995529652, -2.868757E-06, -0.03488709, 0.0348870941685944 , -2.891329E-06, 0.1604449, 0.160444885518377, -1.620617E-06, 1.161036, 1.16103589534873
2.01999995484948, -2.927226E-06, -0.03125054, 0.0312505365788991 , -2.92347E-06, 0.181828, 0.181827977323192, -1.607054E-06, 1.069155, 1.0691546201718
2.03999995440245, -2.986332E-06, -0.02722698, 0.0272269809393694 , -2.95531E-06, 0.2011778, 0.201177835486184, -1.592014E-06, 0.9674929, 0.967492938042997
2.05999995395541, -3.046069E-06, -0.02286056, 0.0228605570438343 , -2.986824E-06, 0.2183212, 0.218321248909401, -1.5757E-06, 0.8571707, 0.857170701028365
2.07999995350838, -3.106429E-06, -0.01819838, 0.0181983823745343 , -3.01799E-06, 0.2331088, 0.233108788748251, -1.558283E-06, 0.739377, 0.739377021791193
2.09999995306134, -3.167404E-06, -0.01329006, 0.0132900610615268 , -3.048789E-06, 0.2454161, 0.245416089911325, -1.539956E-06, 0.6153651, 0.615365087987919
2.11999995261431, -3.228989E-06, -0.008187167, 0.00818716798322808 , -3.079207E-06, 0.2551447, 0.255144655723079, -1.520891E-06, 0.4864283, 0.486428290607923
2.13999995216727, -3.291173E-06, -0.002942703, 0.00294270503909523 , -3.109233E-06, 0.2622232, 0.26222321392949, -1.501303E-06, 0.3539279, 0.353927910331096
2.15999995172024, -3.35395E-06, 0.00238944, 0.00238944220121468 , -3.13886E-06, 0.2666072, 0.266607165355086, -1.481362E-06, 0.2191976, 0.219197571282624
2.1799999512732, -3.417312E-06, 0.007755036, 0.00775503675309388 , -3.168087E-06, 0.2682798, 0.268279820699324, -1.461342E-06, 0.08363277, 0.0836327672132372
2.19999995082617, -3.481251E-06, 0.01310007, 0.0131000676161319 , -3.196914E-06, 0.2672516, 0.267251551170397, -1.441356E-06, -0.05141348, 0.0514134764873365
2.21999995037913, -3.545758E-06, 0.01837126, 0.0183712582731698 , -3.225347E-06, 0.2635596, 0.263559579868978, -1.421665E-06, -0.1845986, 0.184598565107098
2.2399999499321, -3.610826E-06, 0.02351661, 0.0235166086793426 , -3.253396E-06, 0.2572675, 0.25726753475339, -1.402452E-06, -0.3146023, 0.314602255824354
2.25999994948506, -3.676447E-06, 0.0284859, 0.028485896303076 , -3.281074E-06, 0.2484644, 0.248464360854832, -1.383876E-06, -0.4401587, 0.440158694984704
2.27999994903803, -3.742615E-06, 0.03323116, 0.0332311617455397 , -3.308397E-06, 0.2372633, 0.237263277196108, -1.366163E-06, -0.5600542, 0.560054183007953
2.29999994859099, -3.809323E-06, 0.03770717, 0.0377071688013201 , -3.335386E-06, 0.2238004, 0.223800361181318, -1.34944E-06, -0.6731458, 0.673145830632609
2.31999994814396, -3.876564E-06, 0.04187183, 0.0418718272751964 , -3.362063E-06, 0.2082329, 0.208232924369297, -1.333865E-06, -0.7783719, 0.778371870518874
2.33999994769692, -3.944333E-06, 0.04568658, 0.0456865804109927 , -3.388456E-06, 0.1907378, 0.19073775413662, -1.319631E-06, -0.8747585, 0.87475854158501
2.35999994724989, -4.012625E-06, 0.04911676, 0.0491167643815221 , -3.414592E-06, 0.1715093, 0.17150928083481, -1.306819E-06, -0.9614237, 0.961423695088321
2.37999994680285, -4.081435E-06, 0.05213191, 0.0521319100368307 , -3.440503E-06, 0.1507572, 0.150757208505789, -1.295552E-06, -1.037604, 1.03760361671529
2.39999994635582, -4.15076E-06, 0.054706, 0.0547059962237991 , -3.466222E-06, 0.1287043, 0.128704309510177, -1.285935E-06, -1.102645, 1.10264492034987
2.41999994590878, -4.220595E-06, 0.05681768, 0.0568176844793551 , -3.491783E-06, 0.1055844, 0.105584383068603, -1.278033E-06, -1.155996, 1.15599632263254
2.43999994546175, -4.29094E-06, 0.05845047, 0.0584504717673331 , -3.517221E-06, 0.08163939, 0.0816393942398506, -1.271928E-06, -1.197249, 1.1972494125373
2.45999994501472, -4.361791E-06, 0.05959281, 0.0595928134130295 , -3.542575E-06, 0.05711707, 0.0571170748378727, -1.267676E-06, -1.226116, 1.226115942002
2.47999994456768, -4.433149E-06, 0.06023819, 0.0602381864331244 , -3.56788E-06, 0.03226866, 0.0322686584776193, -1.265266E-06, -1.242421, 1.2424207925803
2.49999994412065, -4.505012E-06, 0.06038511, 0.0603851081621271 , -3.593175E-06, 0.007346004, 0.00734600512643585, -1.264721E-06, -1.246133, 1.24613273143833
2.51999994367361, -4.577382E-06, 0.06003709, 0.0600370915488929 , -3.618495E-06, -0.01740077, 0.0174007717557043, -1.266017E-06, -1.237339, 1.23733878135746
2.53999994322658, -4.650259E-06, 0.05920257, 0.0592025743761125 , -3.643878E-06, -0.0417258, 0.0417257996004459, -1.269143E-06, -1.216251, 1.21625137329168
2.55999994277954, -4.723646E-06, 0.05789477, 0.0578947739740012 , -3.669358E-06, -0.06538999, 0.0653899909095326, -1.274032E-06, -1.18321, 1.18320953846046
