time, position, , , velocity, , ,acceleration, , 
, x, y, s, x, y, s, x, y, s, 
0.0199999995529652, 0, 0, 0 , 0, 0, 0, 0, 0, 0
0.0399999991059303, -2.303256E-08, 0.1004705, 0.100470475852492 , -1.229819E-08, -0.09647669, 0.096476688981057, -6.149095E-07, -4.823834, 4.82383441925053
0.0599999986588955, -2.384279E-08, 0.09828332, 0.0982833206653624 , -4.028884E-08, -0.1103588, 0.110358804464348, -1.399532E-06, -0.6941058, 0.694105803967933
0.0799999982118607, -2.519638E-08, 0.09585346, 0.095853462815288 , -6.750141E-08, -0.1222939, 0.122293859720249, -1.360629E-06, -0.5967528, 0.596752762796046
0.0999999977648258, -2.709973E-08, 0.09322368, 0.0932236835360566 , -9.502479E-08, -0.1321297, 0.132129743695293, -1.376169E-06, -0.4917942, 0.491794198753375
0.119999997317791, -2.955954E-08, 0.09043896, 0.0904389619827319 , -1.228765E-07, -0.1397488, 0.139748781919533, -1.392585E-06, -0.3809519, 0.380951911213559
0.139999996870756, -3.258274E-08, 0.08754579, 0.0875457897782386 , -1.510685E-07, -0.1450689, 0.145068913698275, -1.409601E-06, -0.2660066, 0.266006588939587
0.159999996423721, -3.617635E-08, 0.08459146, 0.0845914557576257 , -1.796074E-07, -0.1480447, 0.148044675588717, -1.426947E-06, -0.1487881, 0.148788094527411
0.179999995976686, -4.03474E-08, 0.08162335, 0.0816233456134896 , -2.084944E-07, -0.1486677, 0.148667663335946, -1.444348E-06, -0.03114939, 0.0311493873931052
0.199999995529652, -4.510284E-08, 0.07868822, 0.0786882191896568 , -2.377253E-07, -0.1469657, 0.146965742111398, -1.461543E-06, 0.08509606, 0.085096061242257
0.219999995082617, -5.044939E-08, 0.07583153, 0.0758315250277687 , -2.672906E-07, -0.1430023, 0.143002271652471, -1.478269E-06, 0.1981735, 0.198173522954732
0.239999994635582, -5.639351E-08, 0.07309671, 0.0730967149138668 , -2.97176E-07, -0.1368747, 0.136874720454539, -1.494267E-06, 0.3063776, 0.306377559903928
0.259999994188547, -6.294123E-08, 0.0705246, 0.0705246031284613 , -3.273622E-07, -0.1287124, 0.128712356090962, -1.509311E-06, 0.4081182, 0.408118218186308
0.279999993741512, -7.009813E-08, 0.06815283, 0.0681528300047281 , -3.578258E-07, -0.1186743, 0.118674293160978, -1.523181E-06, 0.5019032, 0.501903176309989
0.299999993294477, -7.786922E-08, 0.06601528, 0.0660152807832223 , -3.885393E-07, -0.1069461, 0.106946110726109, -1.535673E-06, 0.5864092, 0.586409151556119
0.319999992847443, -8.62589E-08, 0.06414165, 0.064141646027623 , -4.194718E-07, -0.09373663, 0.0937366336593477, -1.546627E-06, 0.6604739, 0.660473883153819
0.339999992400408, -9.527089E-08, 0.06255703, 0.062557034194542 , -4.505895E-07, -0.07927439, 0.0792743861688068, -1.555887E-06, 0.7231124, 0.72311240434814
0.359999991953373, -1.049082E-07, 0.06128166, 0.0612816624344293 , -4.818564E-07, -0.06380387, 0.0638038665074424, -1.563342E-06, 0.773526, 0.773526012899071
0.379999991506338, -1.15173E-07, 0.06033059, 0.0603305920959618 , -5.132345E-07, -0.04758145, 0.0475814491538071, -1.568904E-06, 0.8111209, 0.811120867730704
0.399999991059303, -1.260668E-07, 0.05971362, 0.0597136169673343 , -5.446846E-07, -0.03087105, 0.0308710485744844, -1.572505E-06, 0.83552, 0.835520029069473
0.419999990612268, -1.375902E-07, 0.05943517, 0.059435170144002 , -5.761673E-07, -0.01394024, 0.013940244925008, -1.574136E-06, 0.8465402, 0.846540212632689
0.439999990165234, -1.497431E-07, 0.05949435, 0.0594943463804222 , -6.076431E-07, 0.00294438, 0.00294438010763796, -1.57379E-06, 0.8442312, 0.844231247903383
0.459999989718199, -1.625247E-07, 0.05988499, 0.0598849914970219 , -6.390734E-07, 0.01952091, 0.0195209086045924, -1.571516E-06, 0.8288264, 0.828826427461207
0.479999989271164, -1.759331E-07, 0.0605959, 0.0605958998205832 , -6.704207E-07, 0.03553656, 0.0355365574423133, -1.567366E-06, 0.8007824, 0.800782442094429
0.499999988824129, -1.899661E-07, 0.06161106, 0.061611060053403 , -7.016496E-07, 0.05075097, 0.0507509708453044, -1.561443E-06, 0.7607207, 0.760720670224839
0.519999988377094, -2.046207E-07, 0.06290998, 0.0629099756482591 , -7.327268E-07, 0.06493993, 0.0649399310391755, -1.55386E-06, 0.709448, 0.709448039533409
0.539999987930059, -2.198932E-07, 0.06446805, 0.0644680485133107 , -7.636222E-07, 0.07789889, 0.0778988897837874, -1.544771E-06, 0.647948, 0.647947967054301
0.559999987483025, -2.357793E-07, 0.06625703, 0.0662570297722243 , -7.943088E-07, 0.0894455, 0.0894455015694601, -1.534329E-06, 0.5773306, 0.577330589296472
0.57999998703599, -2.522746E-07, 0.06824554, 0.0682455375795259 , -8.247632E-07, 0.09942214, 0.0994221419130202, -1.522719E-06, 0.498832, 0.498832017185628
0.599999986588955, -2.693739E-07, 0.07039955, 0.0703995451336292 , -8.549661E-07, 0.1076981, 0.107698097828444, -1.510148E-06, 0.4137978, 0.413797795775308
0.61999998614192, -2.87072E-07, 0.07268301, 0.0726830139761872 , -8.849026E-07, 0.1141712, 0.114171221855732, -1.496824E-06, 0.3236562, 0.323656201366071
0.639999985694885, -3.053632E-07, 0.07505842, 0.0750584229833139 , -9.145617E-07, 0.1187689, 0.118768885735218, -1.482954E-06, 0.2298832, 0.22988319397451
0.65999998524785, -3.24242E-07, 0.07748742, 0.0774874165660966 , -9.439372E-07, 0.1214485, 0.121448546651694, -1.468774E-06, 0.133983, 0.133983045824472
0.679999984800816, -3.437025E-07, 0.07993142, 0.0799314156182049 , -9.730273E-07, 0.1221987, 0.122198656205237, -1.454509E-06, 0.03750548, 0.0375054776950587
0.699999984353781, -3.637392E-07, 0.08235218, 0.0823521763094352 , -1.001835E-06, 0.1210374, 0.121037393812511, -1.440384E-06, -0.05806312, 0.058063119667753
0.719999983906746, -3.843466E-07, 0.08471245, 0.0847124457368033 , -1.030367E-06, 0.1180126, 0.118012607102124, -1.426605E-06, -0.1512393, 0.151239335543685
0.739999983459711, -4.055193E-07, 0.08697646, 0.0869764611134446 , -1.058635E-06, 0.1132001, 0.113200142984572, -1.413389E-06, -0.2406232, 0.240623205904343
0.759999983012676, -4.272523E-07, 0.08911053, 0.0891105309139004 , -1.086654E-06, 0.1067027, 0.106702715163996, -1.400934E-06, -0.3248714, 0.324871391060989
0.779999982565641, -4.495412E-07, 0.0910835, 0.0910834968101151 , -1.114442E-06, 0.09864748, 0.0986474752489098, -1.389407E-06, -0.402762, 0.402761995794785
0.799999982118607, -4.723816E-07, 0.09286718, 0.0928671807062719 , -1.142022E-06, 0.08918391, 0.0891839116884872, -1.379004E-06, -0.4731782, 0.473178178073985
0.819999981671572, -4.9577E-07, 0.09443681, 0.094436809421887 , -1.169419E-06, 0.07848111, 0.0784811079589231, -1.369841E-06, -0.5351402, 0.535140216352309
0.839999981224537, -5.197032E-07, 0.09577131, 0.0957713052644525 , -1.19666E-06, 0.06672452, 0.06672452391267, -1.362054E-06, -0.5878292, 0.587829232217459
0.859999980777502, -5.441786E-07, 0.09685358, 0.096853584052661 , -1.223774E-06, 0.05411346, 0.0541134625811672, -1.355738E-06, -0.6305531, 0.630553066731957
0.879999980330467, -5.691945E-07, 0.09767073, 0.0976707264797584 , -1.250794E-06, 0.04085726, 0.0408572554779775, -1.350969E-06, -0.6628104, 0.66281038522858
0.899999979883432, -5.947495E-07, 0.09821416, 0.0982141643780596 , -1.27775E-06, 0.02717204, 0.027172043949606, -1.347797E-06, -0.6842606, 0.684260606767074
0.919999979436398, -6.20843E-07, 0.09847971, 0.0984797105212708 , -1.304675E-06, 0.01327723, 0.0132772327110435, -1.346245E-06, -0.6947406, 0.694740593434685
0.939999978989363, -6.47475E-07, 0.09846755, 0.0984675511739084 , -1.331601E-06, -0.0006079972, 0.00060799863722787, -1.346308E-06, -0.6942615, 0.694261491299981
0.959999978542328, -6.746462E-07, 0.09818219, 0.0981821939372353 , -1.35856E-06, -0.01426794, 0.0142679364135946, -1.347979E-06, -0.682997, 0.682996988297839
0.979999978095293, -7.023579E-07, 0.09763232, 0.097632318737649 , -1.385584E-06, -0.0274937, 0.0274937004200079, -1.351191E-06, -0.6612882, 0.66128820181031
0.999999977648258, -7.306119E-07, 0.09683059, 0.0968305915621664 , -1.412702E-06, -0.04008648, 0.0400864780198116, -1.355869E-06, -0.6296389, 0.629638910295039
1.01999997720122, -7.594107E-07, 0.09579339, 0.0957933887869419 , -1.43994E-06, -0.05186026, 0.0518602580031982, -1.361917E-06, -0.588689, 0.588689029218342
1.03999997675419, -7.887572E-07, 0.09454049, 0.0945404917034628 , -1.467325E-06, -0.06264487, 0.0626448691063111, -1.369233E-06, -0.5392306, 0.539230585100005
1.05999997630715, -8.186548E-07, 0.09309473, 0.0930947288906807 , -1.494878E-06, -0.07228796, 0.0722879618560862, -1.37768E-06, -0.4821546, 0.482154637577118
1.07999997586012, -8.491072E-07, 0.09148158, 0.09148158133424 , -1.52262E-06, -0.08065733, 0.0806573331499766, -1.387093E-06, -0.4184686, 0.418468564751063
1.09999997541308, -8.801185E-07, 0.08972873, 0.0897287279410611 , -1.550566E-06, -0.08764273, 0.0876427292960954, -1.397319E-06, -0.3492698, 0.34926980734151
1.11999997496605, -9.116931E-07, 0.08786558, 0.0878655836033436 , -1.57873E-06, -0.09315704, 0.0931570381059906, -1.408199E-06, -0.2757154, 0.2757154405153
1.13999997451901, -9.438355E-07, 0.08592283, 0.0859228298119885 , -1.607121E-06, -0.09713754, 0.0971375405921369, -1.419534E-06, -0.1990251, 0.19902512431651
1.15999997407198, -9.765504E-07, 0.08393191, 0.0839319080171176 , -1.635744E-06, -0.09954599, 0.0995459854737207, -1.431164E-06, -0.1204222, 0.120422244080465
1.17999997362494, -1.009842E-06, 0.08192453, 0.0819245278897536 , -1.664602E-06, -0.1003694, 0.100369364037012, -1.442874E-06, -0.04116893, 0.041168928171647
1.19999997317791, -1.043716E-06, 0.07993213, 0.0799321308800175 , -1.693692E-06, -0.09961973, 0.0996197313214274, -1.454509E-06, 0.03748164, 0.0374816358371665
1.21999997273088, -1.078176E-06, 0.07798547, 0.0779854729846145 , -1.72301E-06, -0.09733301, 0.0973330140266336, -1.465872E-06, 0.1143359, 0.11433586479173
1.23999997228384, -1.113227E-06, 0.0761141, 0.0761140957556118 , -1.752545E-06, -0.09356868, 0.0935686826870059, -1.476792E-06, 0.1882166, 0.188216567045283
1.25999997183681, -1.148873E-06, 0.07434593, 0.0743459314196663 , -1.782288E-06, -0.08840828, 0.0884082764566783, -1.487115E-06, 0.2580203, 0.258020311598295
1.27999997138977, -1.185117E-06, 0.07270686, 0.0727068558431891 , -1.812221E-06, -0.08195376, 0.0819537639818286, -1.496682E-06, 0.3227256, 0.322725623849525
1.29999997094274, -1.221964E-06, 0.07122035, 0.0712203532562181 , -1.842328E-06, -0.07432549, 0.0743254870404647, -1.505356E-06, 0.3814138, 0.381413847210994
1.3199999704957, -1.259416E-06, 0.06990715, 0.0699071511739689 , -1.872589E-06, -0.06566033, 0.0656603276996609, -1.513024E-06, 0.433258, 0.4332579672363
1.33999997004867, -1.297475E-06, 0.06878497, 0.0687849745276751 , -1.90298E-06, -0.05610916, 0.0561091602171307, -1.519572E-06, 0.4775584, 0.477558374407325
1.35999996960163, -1.336145E-06, 0.06786829, 0.0678682923448481 , -1.933478E-06, -0.04583435, 0.0458343476464862, -1.524904E-06, 0.5137407, 0.513740658762334
1.3799999691546, -1.375426E-06, 0.06716817, 0.0671681687376658 , -1.964059E-06, -0.0350067, 0.0350067020013555, -1.52902E-06, 0.5413823, 0.541382312776817
1.39999996870756, -1.41532E-06, 0.06669211, 0.0666921138913605 , -1.994695E-06, -0.02380309, 0.0238030851723074, -1.531794E-06, 0.5601808, 0.560180842878529
1.41999996826053, -1.455827E-06, 0.06644405, 0.0664440468113172 , -2.02536E-06, -0.01240374, 0.0124037416442766, -1.533249E-06, 0.5699672, 0.569967210294878
1.43999996781349, -1.496948E-06, 0.06642428, 0.0664242804219123 , -2.056026E-06, -0.0009886771, 0.000988679281877016, -1.53334E-06, 0.5707532, 0.570753216745529
1.45999996736646, -1.538681E-06, 0.06662957, 0.066629566269998 , -2.08667E-06, 0.01026431, 0.0102643074726168, -1.532158E-06, 0.5626493, 0.562649250032604
1.47999996691942, -1.581026E-06, 0.06705323, 0.0670532286353537 , -2.117263E-06, 0.02118279, 0.0211827905044101, -1.529679E-06, 0.5459242, 0.545924186708686
1.49999996647239, -1.623982E-06, 0.06768528, 0.0676852762893949 , -2.147783E-06, 0.03160222, 0.0316022188201239, -1.525984E-06, 0.5209714, 0.520971417429298
1.51999996602535, -1.667546E-06, 0.06851265, 0.0685126483643333 , -2.178206E-06, 0.04136838, 0.0413683802462875, -1.521164E-06, 0.4883081, 0.488308072092518
1.53999996557832, -1.711716E-06, 0.06951944, 0.0695194378705947 , -2.208512E-06, 0.05033948, 0.0503394753225323, -1.515286E-06, 0.4485548, 0.448554754259762
1.55999996513128, -1.75649E-06, 0.07068721, 0.0706872120717844 , -2.238681E-06, 0.05838865, 0.0583886504602446, -1.508477E-06, 0.4024588, 0.402458757164921
1.57999996468425, -1.801864E-06, 0.07199531, 0.0719953105079111 , -2.268698E-06, 0.06540501, 0.0654050112164101, -1.500837E-06, 0.350818, 0.350818037989966
1.59999996423721, -1.847835E-06, 0.07342122, 0.0734212175244163 , -2.298548E-06, 0.07129546, 0.0712954551352045, -1.492504E-06, 0.2945222, 0.29452219605824
1.61999996379018, -1.894399E-06, 0.07494094, 0.0749409422517843 , -2.328221E-06, 0.07598591, 0.0759859085439693, -1.483647E-06, 0.2345227, 0.234522670512124
1.63999996334314, -1.941554E-06, 0.07652939, 0.076529391134572 , -2.357708E-06, 0.07942219, 0.0794221908204032, -1.474359E-06, 0.1718141, 0.171814113861688
1.65999996289611, -1.989294E-06, 0.07816081, 0.0781608075156639 , -2.387005E-06, 0.08157046, 0.0815704614273282, -1.464844E-06, 0.1074135, 0.10741353035972
1.67999996244907, -2.037616E-06, 0.07980917, 0.0798091665170429 , -2.41611E-06, 0.08241718, 0.0824171752091743, -1.455226E-06, 0.04233569, 0.0423356890928512
1.69999996200204, -2.086516E-06, 0.08144856, 0.0814485624699821 , -2.445023E-06, 0.08196941, 0.0819694102175112, -1.445665E-06, -0.02238825, 0.0223882496823715
1.719999961555, -2.135991E-06, 0.08305366, 0.0830536559498798 , -2.473749E-06, 0.08025435, 0.0802543461704037, -1.436285E-06, -0.0857532, 0.0857532024503827
1.73999996110797, -2.186037E-06, 0.08460003, 0.0846000314041283 , -2.502294E-06, 0.07731836, 0.077318355481585, -1.427247E-06, -0.1467995, 0.146799534566188
1.75999996066093, -2.236651E-06, 0.08606456, 0.086064562230563 , -2.530668E-06, 0.07322602, 0.0732260197838342, -1.418721E-06, -0.2046168, 0.204616785054357
1.7799999602139, -2.287828E-06, 0.08742575, 0.0874257535041704 , -2.558883E-06, 0.06805886, 0.0680588633303082, -1.410763E-06, -0.2583578, 0.258357822898902
1.79999995976686, -2.339567E-06, 0.08866404, 0.0886640400003112 , -2.586954E-06, 0.06191404, 0.0619140416924197, -1.403521E-06, -0.3072411, 0.307241082194673
1.81999995931983, -2.391865E-06, 0.08976209, 0.0897620916685254 , -2.614896E-06, 0.0549022, 0.0549021959927525, -1.397132E-06, -0.3505923, 0.350592285397452
1.8399999588728, -2.44472E-06, 0.09070502, 0.0907050222487888 , -2.642729E-06, 0.04714593, 0.0471459329868946, -1.391629E-06, -0.3878132, 0.387813150885218
1.85999995842576, -2.498129E-06, 0.09148058, 0.0914805829866085 , -2.670471E-06, 0.03877731, 0.0387773067678644, -1.387082E-06, -0.4184313, 0.418431311848078
1.87999995797873, -2.552092E-06, 0.09207932, 0.092079319095216 , -2.698143E-06, 0.02993596, 0.0299359561228742, -1.383603E-06, -0.4420675, 0.442067533733626
1.89999995753169, -2.606607E-06, 0.09249466, 0.0924946591625335 , -2.725766E-06, 0.0207665, 0.0207664968372143, -1.38117E-06, -0.458473, 0.458472967149908
1.91999995708466, -2.661675E-06, 0.092723, 0.092723004558142 , -2.753363E-06, 0.01141678, 0.0114167783004183, -1.37984E-06, -0.4674859, 0.467485934497962
1.93999995663762, -2.717294E-06, 0.09276371, 0.0927637145321194 , -2.780955E-06, 0.002035037, 0.00203503858322224, -1.379613E-06, -0.4690871, 0.469087064268234
1.95999995619059, -2.773465E-06, 0.09261907, 0.0926190689621378 , -2.808564E-06, -0.007232547, 0.00723254735165037, -1.380442E-06, -0.4633792, 0.463379174472958
1.97999995574355, -2.830189E-06, 0.09229421, 0.0922942087488189 , -2.836211E-06, -0.01624356, 0.0162435623499265, -1.382352E-06, -0.4505508, 0.450550764801239
1.99999995529652, -2.887468E-06, 0.09179698, 0.0917969793535409 , -2.863916E-06, -0.02486208, 0.0248620809774045, -1.385251E-06, -0.4309259, 0.430925935509047
2.01999995484948, -2.945302E-06, 0.09113779, 0.0911377892374072 , -2.891698E-06, -0.03296004, 0.0329600424842941, -1.389094E-06, -0.4048981, 0.40489807725191
2.03999995440245, -3.003693E-06, 0.09032939, 0.0903293937944091 , -2.919574E-06, -0.04041968, 0.0404196829658171, -1.393823E-06, -0.372982, 0.372982025149089
2.05999995395541, -3.062644E-06, 0.08938669, 0.0893866941857492 , -2.947561E-06, -0.04713516, 0.0471351594654451, -1.399326E-06, -0.3357738, 0.335773825648363
2.07999995350838, -3.122158E-06, 0.08832642, 0.0883264244154562 , -2.975671E-06, -0.05301346, 0.0530134589315125, -1.40551E-06, -0.293915, 0.29391497373917
2.09999995306134, -3.182236E-06, 0.08716691, 0.0871669054612248 , -3.003917E-06, -0.05797605, 0.0579760522428525, -1.412286E-06, -0.2481297, 0.248129665855612
2.11999995261431, -3.242882E-06, 0.0859277, 0.0859277025477077 , -3.032307E-06, -0.06196029, 0.0619602949169199, -1.419528E-06, -0.1992121, 0.199212133889488
2.13999995216727, -3.304099E-06, 0.08462932, 0.0846293196727109 , -3.060849E-06, -0.06491947, 0.0649194718128797, -1.427088E-06, -0.1479588, 0.147958844907013
2.15999995172024, -3.36589E-06, 0.08329286, 0.0832928568804854 , -3.089547E-06, -0.06682339, 0.0668233931778824, -1.434876E-06, -0.09519607, 0.0951960682977096
2.1799999512732, -3.428258E-06, 0.08193968, 0.0819396824361809 , -3.118403E-06, -0.06765881, 0.0676588118794962, -1.442811E-06, -0.04177094, 0.0417709350835118
2.19999995082617, -3.491206E-06, 0.0805911, 0.0805910975497177 , -3.147416E-06, -0.06742935, 0.0674293488998647, -1.450655E-06, 0.01147315, 0.0114731491529128
2.21999995037913, -3.554738E-06, 0.07926799, 0.0792679936490794 , -3.176584E-06, -0.06615528, 0.0661552847194384, -1.458397E-06, 0.06370321, 0.0637032091784524
2.2399999499321, -3.618856E-06, 0.07799055, 0.0779905469065076 , -3.205901E-06, -0.0638725, 0.0638725013345373, -1.465844E-06, 0.1141392, 0.114139169463987
2.25999994948506, -3.683563E-06, 0.07677791, 0.0767779053141167 , -3.235359E-06, -0.06063224, 0.0606322438387995, -1.472915E-06, 0.1620129, 0.162012875086804
2.27999994903803, -3.748862E-06, 0.07564791, 0.0756479055618314 , -3.26495E-06, -0.05649981, 0.0564998091210538, -1.479521E-06, 0.2066217, 0.206621736293368
2.29999994859099, -3.814755E-06, 0.07461683, 0.0746168346188076 , -3.29466E-06, -0.0515534, 0.0515533984760199, -1.485546E-06, 0.2473205, 0.247320532803229
2.31999994814396, -3.881245E-06, 0.07369918, 0.0736991838642732 , -3.324478E-06, -0.04588236, 0.045882359267512, -1.490889E-06, 0.283552, 0.283551961187467
2.33999994769692, -3.948333E-06, 0.07290746, 0.0729074628230144 , -3.354389E-06, -0.03958619, 0.0395861865511159, -1.495528E-06, 0.3148086, 0.314808636907315
2.35999994724989, -4.01602E-06, 0.07225201, 0.0722520129008617 , -3.384376E-06, -0.03277241, 0.0327724071104425, -1.499347E-06, 0.340689, 0.340688973668537
2.37999994680285, -4.084309E-06, 0.07174091, 0.0717409105271437 , -3.414423E-06, -0.02555513, 0.0255551340476806, -1.502337E-06, 0.3608637, 0.360863655808715
2.39999994635582, -4.153199E-06, 0.07137986, 0.0713798553959799 , -3.444511E-06, -0.01805291, 0.0180529061265663, -1.504429E-06, 0.3751114, 0.375111401084102
2.41999994590878, -4.222692E-06, 0.07117213, 0.0711721257627989 , -3.474624E-06, -0.01038654, 0.0103865420669718, -1.505646E-06, 0.3833182, 0.383318215611554
2.43999994546175, -4.292786E-06, 0.07111856, 0.0711185635431784 , -3.504743E-06, -0.002677962, 0.00267796447734145, -1.505953E-06, 0.385429, 0.385428965094647
2.45999994501472, -4.363483E-06, 0.07121761, 0.0712176115657502 , -3.534851E-06, 0.00495249, 0.00495249159124582, -1.505373E-06, 0.3815226, 0.381522625687708
2.47999994456768, -4.434782E-06, 0.07146536, 0.0714653582756846 , -3.564929E-06, 0.01238741, 0.0123874103192207, -1.503918E-06, 0.371746, 0.371745973828497
2.49999994412065, -4.506681E-06, 0.07185564, 0.0718556420428193 , -3.594962E-06, 0.01951402, 0.0195140245888, -1.501644E-06, 0.3563307, 0.356330722573583
2.51999994367361, -4.579179E-06, 0.07238017, 0.0723801703709495 , -3.624933E-06, 0.02622648, 0.0262264760853594, -1.498586E-06, 0.3356226, 0.335622578862675
2.53999994322658, -4.652276E-06, 0.07302871, 0.0730287061623424 , -3.654829E-06, 0.03242688, 0.0324268790158966, -1.4948E-06, 0.3100201, 0.310020148757724
