time, position, , , velocity, , ,acceleration, , 
, x, y, s, x, y, s, x, y, s, 
0.0199999995529652, 0, 0, 0 , 0, 0, 0, 0, 0, 0
0.0399999991059303, -2.302914E-08, 0.1004428, 0.100442796945575 , -1.212722E-08, -0.09786093, 0.0978609323501594, -6.063612E-07, -4.893047, 4.89304685592655
0.0599999986588955, -2.360966E-08, 0.09669925, 0.0966992527246504 , -2.880353E-08, -0.1881777, 0.188177749514582, -8.338152E-07, -4.515841, 4.51584100723274
0.0799999982118607, -2.450296E-08, 0.09115332, 0.0911533161997828 , -4.44866E-08, -0.2780979, 0.278097927570347, -7.841539E-07, -4.496009, 4.49600887298591
0.0999999977648258, -2.571076E-08, 0.08381623, 0.0838162302970926 , -6.024739E-08, -0.3674946, 0.367494642734533, -7.880392E-07, -4.469836, 4.4698357582093
0.119999997317791, -2.723513E-08, 0.07470164, 0.0747016370296528 , -7.610451E-08, -0.456242, 0.456242024898535, -7.928559E-07, -4.437369, 4.43736934661872
0.139999996870756, -2.907848E-08, 0.06382553, 0.0638255327940053 , -9.20763E-08, -0.5442153, 0.544215261936196, -7.985897E-07, -4.398662, 4.39866209030159
0.159999996423721, -3.124356E-08, 0.05120628, 0.0512062758207417 , -1.08181E-07, -0.6312907, 0.631290674209604, -8.052353E-07, -4.353771, 4.35377073287971
0.179999995976686, -3.373346E-08, 0.0368646, 0.036864604800955 , -1.244366E-07, -0.7173461, 0.717346072196971, -8.127803E-07, -4.30277, 4.30277013778694
0.199999995529652, -3.655161E-08, 0.02082359, 0.0208235904574715 , -1.408609E-07, -0.8022609, 0.802260875701917, -8.212155E-07, -4.24574, 4.24574041366585
0.219999995082617, -3.970179E-08, 0.003108625, 0.00310862530048212 , -1.574715E-07, -0.8859164, 0.885916352272048, -8.305278E-07, -4.182774, 4.18277406692513
0.239999994635582, -4.318811E-08, -0.01625259, 0.0162525922060587 , -1.742856E-07, -0.9681956, 0.968195557594315, -8.40705E-07, -4.11396, 4.11396026611337
0.259999994188547, -4.701499E-08, -0.03723011, 0.0372301116586028 , -1.913201E-07, -1.048984, 1.04898381233217, -8.517283E-07, -4.039413, 4.03941297531137
0.279999993741512, -5.118721E-08, -0.05979175, 0.0597917512059431 , -2.085918E-07, -1.128168, 1.12816846370699, -8.635816E-07, -3.959233, 3.95923256874094
0.299999993294477, -5.570985E-08, -0.08390316, 0.0839031562209314 , -2.261168E-07, -1.20564, 1.20563960075381, -8.762506E-07, -3.873557, 3.8735568523408
0.319999992847443, -6.058832E-08, -0.1095278, 0.109527841210382 , -2.439111E-07, -1.28129, 1.28128957748415, -8.897146E-07, -3.782499, 3.78249883651744
0.339999992400408, -6.582832E-08, -0.1366272, 0.136627241969124 , -2.619901E-07, -1.355014, 1.35501360893252, -9.03951E-07, -3.686202, 3.68620157241832
0.359999991953373, -7.143586E-08, -0.1651607, 0.165160715580002 , -2.803689E-07, -1.42671, 1.42670989036563, -9.189407E-07, -3.584814, 3.58481407165539
0.379999991506338, -7.741723E-08, -0.1950857, 0.195085749030129 , -2.990621E-07, -1.49628, 1.49627971649173, -9.346607E-07, -3.478491, 3.47849130630506
0.399999991059303, -8.377901E-08, -0.2263578, 0.226357847452179 , -3.180839E-07, -1.563627, 1.56362724304202, -9.510913E-07, -3.367376, 3.36737632751478
0.419999990612268, -9.052805E-08, -0.2589307, 0.258930683136002 , -3.37448E-07, -1.62866, 1.62865996360782, -9.682026E-07, -3.251636, 3.25163602828994
0.439999990165234, -9.767146E-08, -0.2927562, 0.292756170034425 , -3.571675E-07, -1.691289, 1.69128894805912, -9.859733E-07, -3.131449, 3.13144922256485
0.459999989718199, -1.052166E-07, -0.3277845, 0.327784508466737 , -3.772549E-07, -1.751429, 1.7514288425446, -1.004374E-06, -3.006995, 3.00699472427385
0.479999989271164, -1.131711E-07, -0.3639643, 0.363964289426821 , -3.977225E-07, -1.808998, 1.80899763107304, -1.023379E-06, -2.878439, 2.8784394264223
0.499999988824129, -1.215428E-07, -0.4012425, 0.401242494583148 , -4.185817E-07, -1.863918, 1.86391758918767, -1.042962E-06, -2.745998, 2.7459979057314
0.519999988377094, -1.303397E-07, -0.4395646, 0.439564645290394 , -4.398437E-07, -1.916114, 1.91611409187322, -1.063096E-06, -2.609825, 2.60982513427756
0.539999987930059, -1.395701E-07, -0.4788749, 0.478874891996404 , -4.615186E-07, -1.965517, 1.96551728248602, -1.083747E-06, -2.47016, 2.47015953063989
0.559999987483025, -1.492424E-07, -0.519116, 0.519116044044516 , -4.836163E-07, -2.012061, 2.01206111907965, -1.104885E-06, -2.327192, 2.32719182968166
0.57999998703599, -1.593653E-07, -0.5602297, 0.560229659080528 , -5.06146E-07, -2.055683, 2.05568313598639, -1.126483E-06, -2.181101, 2.1811008453372
0.599999986588955, -1.699477E-07, -0.6021561, 0.602156102657342 , -5.291161E-07, -2.096326, 2.0963256359101, -1.148504E-06, -2.032125, 2.03212499618563
0.61999998614192, -1.809984E-07, -0.6448348, 0.644834756851222 , -5.525346E-07, -2.133935, 2.13393545150764, -1.170929E-06, -1.880491, 1.88049077987707
0.639999985694885, -1.925266E-07, -0.688204, 0.688203990459469 , -5.764089E-07, -2.168464, 2.16846370697029, -1.193712E-06, -1.726413, 1.72641277313274
0.65999998524785, -2.045415E-07, -0.7322013, 0.732201278209715 , -6.007455E-07, -2.199865, 2.19986486434945, -1.21683E-06, -1.570058, 1.57005786895799
0.679999984800816, -2.170525E-07, -0.7767633, 0.776763260364563 , -6.255501E-07, -2.2281, 2.22809982299813, -1.240232E-06, -1.411748, 1.41174793243463
0.699999984353781, -2.30069E-07, -0.8218259, 0.821825921535524 , -6.508283E-07, -2.253133, 2.25313282012949, -1.263908E-06, -1.25165, 1.25164985656802
0.719999983906746, -2.436007E-07, -0.8673245, 0.867324531078373 , -6.765845E-07, -2.274932, 2.27493238449107, -1.28781E-06, -1.089978, 1.08997821807937
0.739999983459711, -2.576571E-07, -0.913194, 0.913194000721014 , -7.028226E-07, -2.293472, 2.29347229003917, -1.311906E-06, -0.9269953, 0.926995277405713
0.759999983012676, -2.722481E-07, -0.9593686, 0.959368646144906 , -7.295459E-07, -2.308731, 2.30873107910168, -1.336164E-06, -0.7629395, 0.76293945312617
0.779999982565641, -2.873832E-07, -1.005782, 1.00578248500828 , -7.567569E-07, -2.320692, 2.32069158554089, -1.36055E-06, -0.5980253, 0.598025321961997
0.799999982118607, -3.030723E-07, -1.052369, 1.05236935615544 , -7.844573E-07, -2.329342, 2.32934188842787, -1.385021E-06, -0.4325151, 0.432515144350362
0.819999981671572, -3.193253E-07, -1.099063, 1.09906280040746 , -8.126483E-07, -2.334674, 2.33467364311232, -1.409549E-06, -0.2665877, 0.266587734226139
0.839999981224537, -3.361519E-07, -1.145797, 1.14579653739934 , -8.413304E-07, -2.336684, 2.33668446540848, -1.434105E-06, -0.1005411, 0.100541114817357
0.859999980777502, -3.53562E-07, -1.192504, 1.19250404834753 , -8.705031E-07, -2.335377, 2.33537673950212, -1.458633E-06, 0.0653863, 0.0653862953348731
0.879999980330467, -3.715653E-07, -1.239119, 1.23911917209631 , -9.001657E-07, -2.330756, 2.33075618743914, -1.48313E-06, 0.2310276, 0.231027603154175
0.899999979883432, -3.901716E-07, -1.285576, 1.28557586669928 , -9.303163E-07, -2.322834, 2.32283449172992, -1.507533E-06, 0.3960848, 0.396084785464295
0.919999979436398, -4.093907E-07, -1.331808, 1.3318083286286 , -9.609524E-07, -2.311627, 2.31162738800069, -1.531805E-06, 0.5603552, 0.560355186464496
0.939999978989363, -4.292321E-07, -1.377751, 1.3777513504029 , -9.920715E-07, -2.297155, 2.29715538024924, -1.555952E-06, 0.7236004, 0.723600387574915
0.959999978542328, -4.497055E-07, -1.42334, 1.42334020137794 , -1.02367E-06, -2.279444, 2.27944374084496, -1.579906E-06, 0.885582, 0.885581970216253
0.979999978095293, -4.708204E-07, -1.468511, 1.46851062774666 , -1.055742E-06, -2.258522, 2.25852227211023, -1.603638E-06, 1.046073, 1.04607343673829
0.999999977648258, -4.925861E-07, -1.513199, 1.51319909095772 , -1.088285E-06, -2.234425, 2.23442506790188, -1.627114E-06, 1.20486, 1.2048602104198
1.01999997720122, -5.150119E-07, -1.557343, 1.55734288692483 , -1.121291E-06, -2.207191, 2.20719099044828, -1.650295E-06, 1.361704, 1.36170387268166
1.03999997675419, -5.38107E-07, -1.60088, 1.6008801460267 , -1.154754E-06, -2.176863, 2.17686295509369, -1.673186E-06, 1.516402, 1.51640176773164
1.05999997630715, -5.618803E-07, -1.64375, 1.64374995231638 , -1.188668E-06, -2.143489, 2.14348864555392, -1.69569E-06, 1.668715, 1.66871547699061
1.07999997586012, -5.863408E-07, -1.685892, 1.68589234352122 , -1.223025E-06, -2.10712, 2.10711979866063, -1.717825E-06, 1.818442, 1.81844234466634
1.09999997541308, -6.114971E-07, -1.727249, 1.72724854946147 , -1.257816E-06, -2.067812, 2.06781196594277, -1.739556E-06, 1.965392, 1.96539163589555
1.11999997496605, -6.373577E-07, -1.767761, 1.76776111125958 , -1.293033E-06, -2.025625, 2.02562546730083, -1.76085E-06, 2.109325, 2.10932493209912
1.13999997451901, -6.639311E-07, -1.807374, 1.80737364292157 , -1.328666E-06, -1.980624, 1.98062396049544, -1.781643E-06, 2.250075, 2.2500753402717
1.15999997407198, -6.912252E-07, -1.846031, 1.84603118896497 , -1.364705E-06, -1.932875, 1.93287539482165, -1.801948E-06, 2.387428, 2.38742828369209
1.17999997362494, -7.19248E-07, -1.88368, 1.88368022441878 , -1.40114E-06, -1.882451, 1.88245129585318, -1.821752E-06, 2.521205, 2.52120494842595
1.19999997317791, -7.480072E-07, -1.920269, 1.92026877403274 , -1.437958E-06, -1.829427, 1.82942724227962, -1.840942E-06, 2.651203, 2.65120267868106
1.21999997273088, -7.775101E-07, -1.955746, 1.95574641227738 , -1.47515E-06, -1.773882, 1.77388215065064, -1.859587E-06, 2.777255, 2.77725458145204
1.23999997228384, -8.077642E-07, -1.990064, 1.99006438255326 , -1.512703E-06, -1.715899, 1.71589851379461, -1.877618E-06, 2.899182, 2.89918184280456
1.25999997183681, -8.387763E-07, -2.023176, 2.02317571640032 , -1.550603E-06, -1.655562, 1.65556168556286, -1.895012E-06, 3.016841, 3.01684141159117
1.27999997138977, -8.70553E-07, -2.055035, 2.05503487586994 , -1.588838E-06, -1.592961, 1.59296107292255, -1.911746E-06, 3.130031, 3.13003063201963
1.29999997094274, -9.031009E-07, -2.085599, 2.08559870719929 , -1.627394E-06, -1.528188, 1.52818846702662, -1.92781E-06, 3.23863, 3.23863029480038
1.3199999704957, -9.36426E-07, -2.114825, 2.11482548713705 , -1.666257E-06, -1.461339, 1.46133899688816, -1.943158E-06, 3.342474, 3.34247350692806
1.33999997004867, -9.705343E-07, -2.142676, 2.14267563819907 , -1.705413E-06, -1.39251, 1.39251041412458, -1.95779E-06, 3.441429, 3.44142913818415
1.35999996960163, -1.005431E-06, -2.169112, 2.16911172866845 , -1.744846E-06, -1.321803, 1.32180333137627, -1.971682E-06, 3.535354, 3.5353541374212
1.3799999691546, -1.041122E-06, -2.194098, 2.19409823417688 , -1.784543E-06, -1.249321, 1.24932050705084, -1.984807E-06, 3.624141, 3.62414121627862
1.39999996870756, -1.077612E-06, -2.217602, 2.21760153770473 , -1.824486E-06, -1.175168, 1.17516756057881, -1.997154E-06, 3.707647, 3.70764732360894
1.41999996826053, -1.114905E-06, -2.239591, 2.2395906448367 , -1.86466E-06, -1.099452, 1.09945201873937, -2.00871E-06, 3.785777, 3.78577709198051
1.43999996781349, -1.153006E-06, -2.260036, 2.26003623008757 , -1.905049E-06, -1.022284, 1.0222837924975, -2.019448E-06, 3.858411, 3.8584113121038
1.45999996736646, -1.191919E-06, -2.278912, 2.27891182899506 , -1.945636E-06, -0.9437741, 0.943774104120353, -2.029361E-06, 3.925484, 3.92548441886954
1.47999996691942, -1.231647E-06, -2.296193, 2.29619264602694 , -1.986405E-06, -0.8640365, 0.864036500456232, -2.03845E-06, 3.98688, 3.98688030242972
1.49999996647239, -1.272194E-06, -2.311856, 2.31185626983678 , -2.027339E-06, -0.7831857, 0.78318572044635, -2.046681E-06, 4.042539, 4.04253911972098
1.51999996602535, -1.313562E-06, -2.325883, 2.32588315010108 , -2.06842E-06, -0.7013383, 0.701338291171263, -2.054048E-06, 4.092371, 4.09237146377615
1.53999996557832, -1.355755E-06, -2.338255, 2.33825540542642 , -2.10963E-06, -0.6186117, 0.61861169338586, -2.060528E-06, 4.13633, 4.13633012771658
1.55999996513128, -1.398774E-06, -2.348958, 2.34895801544231 , -2.150954E-06, -0.5351245, 0.535124540333302, -2.066167E-06, 4.174358, 4.17435789108328
1.57999996468425, -1.442621E-06, -2.357978, 2.35797786712691 , -2.192371E-06, -0.4509964, 0.45099639893111, -2.070885E-06, 4.206407, 4.20640707016042
1.59999996423721, -1.487298E-06, -2.365305, 2.3653047084813 , -2.233866E-06, -0.3663476, 0.366347610957281, -2.074739E-06, 4.23244, 4.23243951797536
1.61999996379018, -1.532807E-06, -2.370931, 2.37093067169239 , -2.275421E-06, -0.281299, 0.281299024829531, -2.077729E-06, 4.252429, 4.25242948532155
1.63999996334314, -1.579147E-06, -2.37485, 2.37485003471427 , -2.317016E-06, -0.1959719, 0.19597193600117, -2.079742E-06, 4.266355, 4.26635456085256
1.65999996289611, -1.62632E-06, -2.37706, 2.37705969810541 , -2.358634E-06, -0.1104878, 0.110487818743132, -2.080947E-06, 4.274206, 4.27420616149953
1.67999996244907, -1.674325E-06, -2.377559, 2.37755894661009 , -2.400258E-06, -0.02496824, 0.0249682368001706, -2.081185E-06, 4.275979, 4.27597904205373
1.69999996200204, -1.723162E-06, -2.37635, 2.37634968757692 , -2.441869E-06, 0.06046541, 0.0604654104010601, -2.080549E-06, 4.271682, 4.27168226242116
1.719999961555, -1.772831E-06, -2.373436, 2.37343573570318 , -2.483449E-06, 0.145692, 0.145692020675845, -2.079014E-06, 4.261331, 4.26133060455373
1.73999996110797, -1.823331E-06, -2.368824, 2.36882400512765 , -2.524981E-06, 0.2305909, 0.23059089483213, -2.076592E-06, 4.244944, 4.24494361877492
1.75999996066093, -1.87466E-06, -2.362523, 2.3625230789192 , -2.566446E-06, 0.315042, 0.315042018900834, -2.073261E-06, 4.222556, 4.22255611419729
1.7799999602139, -1.926816E-06, -2.354545, 2.35454463958819 , -2.607828E-06, 0.3989262, 0.398926198491037, -2.069089E-06, 4.194209, 4.19420909881643
1.79999995976686, -1.979799E-06, -2.344902, 2.34490203857505 , -2.649109E-06, 0.4821251, 0.482125103480941, -2.06403E-06, 4.159945, 4.15994548797659
1.81999995931983, -2.033604E-06, -2.333611, 2.33361148834317 , -2.690271E-06, 0.5645218, 0.564521789557192, -2.058096E-06, 4.119834, 4.1198344230657
1.8399999588728, -2.08823E-06, -2.320692, 2.32069158554171 , -2.731297E-06, 0.6460003, 0.646000266080908, -2.051297E-06, 4.073924, 4.07392406463675
1.85999995842576, -2.143673E-06, -2.306163, 2.3061625957499 , -2.77217E-06, 0.7264464, 0.726446390157267, -2.04368E-06, 4.022306, 4.02230644226126
1.87999995797873, -2.199931E-06, -2.290048, 2.2900476455699 , -2.812875E-06, 0.8057474, 0.805747389798306, -2.035245E-06, 3.96505, 3.96504998207145
1.89999995753169, -2.256999E-06, -2.272372, 2.27237176895254 , -2.853393E-06, 0.8837923, 0.883792281155424, -2.025899E-06, 3.902245, 3.90224456787162
1.91999995708466, -2.314873E-06, -2.253162, 2.25316238403439 , -2.89371E-06, 0.9604721, 0.960472106937953, -2.015827E-06, 3.833991, 3.83399128913932
1.93999995663762, -2.373549E-06, -2.232449, 2.2324488163007 , -2.933809E-06, 1.03568, 1.03568005562244, -2.004958E-06, 3.760397, 3.76039743423515
1.95999995619059, -2.433022E-06, -2.210263, 2.2102625370039 , -2.973675E-06, 1.109311, 1.10931134224337, -1.993317E-06, 3.681564, 3.68156433105523
1.97999995574355, -2.493288E-06, -2.186637, 2.18663716316365 , -3.013293E-06, 1.181264, 1.18126368523028, -1.980891E-06, 3.597617, 3.59761714935357
1.99999995529652, -2.554341E-06, -2.161608, 2.16160845756682 , -3.052648E-06, 1.251437, 1.25143742561713, -1.967737E-06, 3.508687, 3.5086870193487
2.01999995484948, -2.616176E-06, -2.135214, 2.13521385193031 , -3.091725E-06, 1.319736, 1.31973576546077, -1.953867E-06, 3.414917, 3.41491699218806
2.03999995440245, -2.678786E-06, -2.107493, 2.1074926853197 , -3.130511E-06, 1.386064, 1.38606405258532, -1.939281E-06, 3.316414, 3.31641435623226
2.05999995395541, -2.742166E-06, -2.078486, 2.07848596573057 , -3.168992E-06, 1.450331, 1.45033121109355, -1.924082E-06, 3.213358, 3.21335792541562
2.07999995350838, -2.806309E-06, -2.048237, 2.04823708534433 , -3.207155E-06, 1.512449, 1.51244878769261, -1.908154E-06, 3.105879, 3.10587882995664
2.09999995306134, -2.871209E-06, -2.01679, 2.01679039001669 , -3.244989E-06, 1.572332, 1.57233166694976, -1.891692E-06, 2.994144, 2.99414396286071
2.11999995261431, -2.936858E-06, -1.984192, 1.98419225216129 , -3.282479E-06, 1.629898, 1.62989807129237, -1.874503E-06, 2.87832, 2.87832021713318
2.13999995216727, -3.003251E-06, -1.950491, 1.95049071312182 , -3.319616E-06, 1.68507, 1.68506956100791, -1.856836E-06, 2.758574, 2.75857448577943
2.15999995172024, -3.070378E-06, -1.915735, 1.91573524475344 , -3.356388E-06, 1.737772, 1.73777151108112, -1.838589E-06, 2.635098, 2.63509750366275
2.1799999512732, -3.138234E-06, -1.879977, 1.87997651100421 , -3.392784E-06, 1.787932, 1.78793239593828, -1.819785E-06, 2.508044, 2.50804424285955
2.19999995082617, -3.20681E-06, -1.843267, 1.84326672554295 , -3.428794E-06, 1.835485, 1.83548474312149, -1.800504E-06, 2.377617, 2.37761735916206
2.21999995037913, -3.276098E-06, -1.805659, 1.80565941334068 , -3.464409E-06, 1.880365, 1.88036465645156, -1.780745E-06, 2.243996, 2.24399566650461
2.2399999499321, -3.346091E-06, -1.767209, 1.76720917225201 , -3.49962E-06, 1.922512, 1.92251205444654, -1.760566E-06, 2.10737, 2.10736989975049
2.25999994948506, -3.416779E-06, -1.727972, 1.72797179222445 , -3.534419E-06, 1.961871, 1.96187114715895, -1.739932E-06, 1.967955, 1.96795463562089
2.27999994903803, -3.488155E-06, -1.688004, 1.68800401687982 , -3.568797E-06, 1.99839, 1.99839019775709, -1.718934E-06, 1.825953, 1.82595252990804
2.29999994859099, -3.56021E-06, -1.647364, 1.64736354351428 , -3.602749E-06, 2.032021, 2.03202128410659, -1.697583E-06, 1.681554, 1.68155431747522
2.31999994814396, -3.632935E-06, -1.606109, 1.60610914230758 , -3.636268E-06, 2.062721, 2.06272077560745, -1.675937E-06, 1.534975, 1.53497457504364
2.33999994769692, -3.706322E-06, -1.5643, 1.56430006027661 , -3.669347E-06, 2.090449, 2.09044933319414, -1.65395E-06, 1.386428, 1.38642787933448
2.35999994724989, -3.780362E-06, -1.521997, 1.52199661732189 , -3.701981E-06, 2.115172, 2.11517190933552, -1.631736E-06, 1.236129, 1.23612880706895
2.37999994680285, -3.855045E-06, -1.479259, 1.47925949097182 , -3.734167E-06, 2.136858, 2.1368575096163, -1.609283E-06, 1.08428, 1.08428001403928
2.39999994635582, -3.930363E-06, -1.43615, 1.43614983559193 , -3.765899E-06, 2.155479, 2.15547943115563, -1.586625E-06, 0.9310961, 0.931096076966684
2.41999994590878, -4.006307E-06, -1.39273, 1.39272952080349 , -3.797176E-06, 2.171016, 2.1710162162814, -1.563819E-06, 0.7768393, 0.776839256288195
2.43999994546175, -4.082867E-06, -1.349061, 1.34906053543709 , -3.827994E-06, 2.18345, 2.183449506763, -1.540911E-06, 0.6216645, 0.621664524080279
2.45999994501472, -4.160034E-06, -1.305205, 1.30520510674186 , -3.858351E-06, 2.192767, 2.19276666641575, -1.517856E-06, 0.465858, 0.465857982637971
2.47999994456768, -4.237799E-06, -1.261226, 1.26122593880412 , -3.888246E-06, 2.198958, 2.19895839691506, -1.494732E-06, 0.3095865, 0.309586524966987
2.49999994412065, -4.316152E-06, -1.217185, 1.21718549729159 , -3.917678E-06, 2.202021, 2.20202064514509, -1.471631E-06, 0.1531124, 0.153112411506096
2.51999994367361, -4.395085E-06, -1.173146, 1.17314648629058 , -3.946648E-06, 2.201953, 2.20195341110583, -1.448484E-06, -0.003361702, 0.00336170227739209
2.53999994322658, -4.474588E-06, -1.129171, 1.12917125225954 , -3.975155E-06, 2.198761, 2.19876098633172, -1.42536E-06, -0.1596212, 0.15962123871486
2.55999994277954, -4.554652E-06, -1.085322, 1.0853221416569 , -4.003203E-06, 2.192453, 2.19245266914733, -1.402373E-06, -0.3154159, 0.31541585922553
2.57999994233251, -4.635268E-06, -1.041661, 1.04166126252252 , -4.030791E-06, 2.183042, 2.1830418109931, -1.379408E-06, -0.4705429, 0.470542907716866
2.59999994188547, -4.716426E-06, -0.9982503, 0.99825030566376 , -4.057923E-06, 2.170547, 2.17054653168104, -1.356602E-06, -0.624764, 0.624763965608162
2.61999994143844, -4.798118E-06, -0.9551505, 0.955150544655454 , -4.084602E-06, 2.154988, 2.15498828888327, -1.333956E-06, -0.7779121, 0.777912139893722
2.6399999409914, -4.880335E-06, -0.9124227, 0.912422657025991 , -4.110832E-06, 2.136394, 2.13639354706206, -1.311514E-06, -0.9297371, 0.929737091065378
2.65999994054437, -4.963067E-06, -0.8701268, 0.870126783861963 , -4.136617E-06, 2.114794, 2.11479353905129, -1.289254E-06, -1.08, 1.08000040054398
