time, position, , , velocity, , ,acceleration, , 
, x, y, s, x, y, s, x, y, s, 
0.0199999995529652, 0, 0, 0 , 0, 0, 0, 0, 0, 0
0.0399999991059303, -2.302941E-08, 0.100445, 0.100444950163367 , -1.214055E-08, -0.09775304, 0.0977530404925354, -6.070275E-07, -4.887652, 4.88765192031864
0.0599999986588955, -2.362784E-08, 0.09682278, 0.0968227759003668 , -2.969912E-08, -0.1821097, 0.18210965394974, -8.779283E-07, -4.217831, 4.21783065795908
0.0799999982118607, -2.455749E-08, 0.09152295, 0.0915229544043574 , -4.630438E-08, -0.2657921, 0.265792131423954, -8.30263E-07, -4.184124, 4.18412399292
0.0999999977648258, -2.582115E-08, 0.08456393, 0.0845639333128969 , -6.304047E-08, -0.3485919, 0.348591864109045, -8.368046E-07, -4.139987, 4.13998651504525
0.119999997317791, -2.742219E-08, 0.07596812, 0.0759681239724209 , -7.993789E-08, -0.4303028, 0.430302798748024, -8.448712E-07, -4.085547, 4.08554697036752
0.139999996870756, -2.936455E-08, 0.06576188, 0.065761879086501 , -9.702654E-08, -0.510722, 0.51072198152543, -8.544323E-07, -4.020959, 4.02095937728891
0.159999996423721, -3.165272E-08, 0.05397543, 0.0539754331112001 , -1.143358E-07, -0.5896503, 0.58965027332307, -8.65462E-07, -3.946415, 3.94641470909128
0.179999995976686, -3.429178E-08, 0.04064282, 0.0406428240239765 , -1.318944E-07, -0.6668929, 0.666892886161817, -8.779296E-07, -3.862131, 3.86213064193736
0.199999995529652, -3.728732E-08, 0.02580183, 0.0258018318563969 , -1.497304E-07, -0.7422594, 0.742259383201614, -8.918036E-07, -3.768325, 3.76832485198985
0.219999995082617, -4.06455E-08, 0.009493898, 0.00949389766910432 , -1.678713E-07, -0.8155648, 0.815564751625078, -9.070419E-07, -3.665268, 3.66526842117321
0.239999994635582, -4.437296E-08, -0.008235999, 0.00823599938315186 , -1.863434E-07, -0.8866295, 0.886629521846791, -9.236075E-07, -3.553239, 3.55323863029492
0.259999994188547, -4.84769E-08, -0.02733945, 0.0273394472897483 , -2.051725E-07, -0.9552803, 0.9552803039551, -9.414557E-07, -3.432539, 3.43253922462476
0.279999993741512, -5.296494E-08, -0.04776473, 0.0477647259831722 , -2.243832E-07, -1.02135, 1.02135038375857, -9.605337E-07, -3.303504, 3.30350399017348
0.299999993294477, -5.784523E-08, -0.06945693, 0.0694569349289181 , -2.439992E-07, -1.08468, 1.08467960357669, -9.807984E-07, -3.166461, 3.16646099090591
0.319999992847443, -6.312634E-08, -0.09235813, 0.0923581272363878 , -2.64043E-07, -1.145115, 1.14511537551883, -1.002189E-06, -3.021789, 3.0217885971071
0.339999992400408, -6.881726E-08, -0.1164075, 0.116407483816167 , -2.845359E-07, -1.202513, 1.20251250267032, -1.024648E-06, -2.869856, 2.86985635757465
0.359999991953373, -7.492739E-08, -0.1415414, 0.141541436314603 , -3.054984E-07, -1.256734, 1.25673437118534, -1.048123E-06, -2.711093, 2.71109342575093
0.379999991506338, -8.146651E-08, -0.1676939, 0.16769391298296 , -3.269494E-07, -1.307652, 1.30765223503117, -1.072552E-06, -2.545893, 2.54589319229149
0.399999991059303, -8.844474E-08, -0.1947964, 0.19479638338091 , -3.489067E-07, -1.355146, 1.35514593124394, -1.097862E-06, -2.374685, 2.37468481063868
0.419999990612268, -9.587255E-08, -0.2227781, 0.222778126597425 , -3.713866E-07, -1.399105, 1.39910483360295, -1.123995E-06, -2.197945, 2.19794511795073
0.439999990165234, -1.037607E-07, -0.2515664, 0.251566350460074 , -3.944042E-07, -1.439427, 1.43942689895635, -1.150882E-06, -2.016103, 2.01610326767001
0.459999989718199, -1.121202E-07, -0.2810865, 0.281086504459403 , -4.179732E-07, -1.476019, 1.47601938247687, -1.178449E-06, -1.829624, 1.82962417602577
0.479999989271164, -1.209624E-07, -0.3112623, 0.311262309551262 , -4.421058E-07, -1.5088, 1.50879967212683, -1.206632E-06, -1.639014, 1.63901448249861
0.499999988824129, -1.302987E-07, -0.342016, 0.342016041278864 , -4.668129E-07, -1.537695, 1.53769469261177, -1.235355E-06, -1.444751, 1.44475102424674
0.519999988377094, -1.401408E-07, -0.3732688, 0.373268753290203 , -4.921038E-07, -1.562642, 1.56264162063606, -1.264544E-06, -1.247346, 1.24734640121524
0.539999987930059, -1.505005E-07, -0.4049404, 0.404940396547345 , -5.179862E-07, -1.583587, 1.58358740806588, -1.29412E-06, -1.047289, 1.04728937149128
0.559999987483025, -1.613899E-07, -0.4369501, 0.436950117349654 , -5.444666E-07, -1.600489, 1.60048937797556, -1.32402E-06, -0.8450985, 0.845098495484436
0.57999998703599, -1.728209E-07, -0.4692163, 0.469216346740754 , -5.715497E-07, -1.613315, 1.61331510543833, -1.354152E-06, -0.6412864, 0.641286373139857
0.599999986588955, -1.848057E-07, -0.5016571, 0.501657128334079 , -5.992385E-07, -1.622042, 1.62204241752636, -1.384444E-06, -0.4363656, 0.436365604402831
0.61999998614192, -1.973564E-07, -0.5341902, 0.534190237522162 , -6.275352E-07, -1.62666, 1.62665987014783, -1.414833E-06, -0.2308726, 0.230872631077333
0.639999985694885, -2.104852E-07, -0.5667335, 0.566733539104501 , -6.564397E-07, -1.627166, 1.62716615200056, -1.445227E-06, -0.02531409, 0.0253140926773637
0.65999998524785, -2.242042E-07, -0.599205, 0.599204957485241 , -6.859507E-07, -1.62357, 1.62357020378127, -1.475547E-06, 0.1797974, 0.179797410971021
0.679999984800816, -2.385255E-07, -0.6315228, 0.631522774696395 , -7.160654E-07, -1.615892, 1.61589157581345, -1.505734E-06, 0.3839314, 0.383931398394676
0.699999984353781, -2.534611E-07, -0.663606, 0.663605988025714 , -7.467793E-07, -1.60416, 1.60415959358233, -1.535696E-06, 0.5865991, 0.586599111559017
0.719999983906746, -2.690228E-07, -0.6953743, 0.695374250412039 , -7.780866E-07, -1.588414, 1.58841443061848, -1.565368E-06, 0.7872581, 0.787258148194916
0.739999983459711, -2.852224E-07, -0.7267483, 0.726748347282466 , -8.0998E-07, -1.568706, 1.56870579719564, -1.594665E-06, 0.9854317, 0.985431671143868
0.759999983012676, -3.020714E-07, -0.7576502, 0.757650196552337 , -8.424504E-07, -1.545093, 1.5450932979586, -1.623522E-06, 1.180625, 1.18062496185414
0.779999982565641, -3.195812E-07, -0.7880031, 0.788003146648472 , -8.754879E-07, -1.517646, 1.51764631271388, -1.651875E-06, 1.372349, 1.37234926223854
0.799999982118607, -3.377628E-07, -0.817732, 0.817732036113809 , -9.090808E-07, -1.486444, 1.48644375801114, -1.679643E-06, 1.560128, 1.56012773513884
0.819999981671572, -3.566271E-07, -0.8467635, 0.846763491630629 , -9.432157E-07, -1.451574, 1.45157361030609, -1.706746E-06, 1.743507, 1.74350738525474
0.839999981224537, -3.761847E-07, -0.8750262, 0.875026166439137 , -9.778786E-07, -1.413133, 1.41313290596042, -1.733144E-06, 1.922035, 1.92203521728594
0.859999980777502, -3.964458E-07, -0.9024507, 0.902450740337459 , -1.013054E-06, -1.371228, 1.37122774124183, -1.758769E-06, 2.095258, 2.09525823593213
0.879999980330467, -4.174203E-07, -0.9289702, 0.928970158100222 , -1.048724E-06, -1.325972, 1.32597208023113, -1.783525E-06, 2.262783, 2.26278305053781
0.899999979883432, -4.391177E-07, -0.9545199, 0.95451992750178 , -1.084872E-06, -1.277489, 1.27748870849655, -1.807382E-06, 2.424169, 2.42416858673163
0.919999979436398, -4.615473E-07, -0.9790381, 0.979038059711565 , -1.121478E-06, -1.225908, 1.22590804100088, -1.830284E-06, 2.579033, 2.57903337478703
0.939999978989363, -4.847177E-07, -1.002465, 1.00246536731732 , -1.158521E-06, -1.171368, 1.17136788368282, -1.852169E-06, 2.727008, 2.72700786590639
0.959999978542328, -5.086373E-07, -1.024746, 1.02474558353437 , -1.195981E-06, -1.114013, 1.1140129566199, -1.872979E-06, 2.867746, 2.86774635315003
0.979999978095293, -5.33314E-07, -1.045825, 1.04582548141493 , -1.233834E-06, -1.053995, 1.05399489402843, -1.892647E-06, 3.000903, 3.00090312957823
0.999999977648258, -5.587551E-07, -1.065655, 1.06565487384811 , -1.272057E-06, -0.9914719, 0.991471886635643, -1.911178E-06, 3.12615, 3.12615036964475
1.01999997720122, -5.849677E-07, -1.084187, 1.08418703079239 , -1.310627E-06, -0.9266077, 0.926607728005382, -1.928481E-06, 3.243208, 3.24320793151913
1.03999997675419, -6.11958E-07, -1.101378, 1.1013784408571 , -1.349518E-06, -0.8595717, 0.859571695328818, -1.944545E-06, 3.351802, 3.3518016338354
1.05999997630715, -6.397321E-07, -1.117189, 1.11718916893024 , -1.388704E-06, -0.7905383, 0.790538311005858, -1.959302E-06, 3.451669, 3.45166921615656
1.07999997586012, -6.682953E-07, -1.131583, 1.13158285617848 , -1.428159E-06, -0.7196865, 0.719686508180128, -1.972751E-06, 3.54259, 3.54259014129694
1.09999997541308, -6.976524E-07, -1.144527, 1.1445268392565 , -1.467856E-06, -0.6471995, 0.64719951152968, -1.984847E-06, 3.62435, 3.62434983253533
1.11999997496605, -7.278077E-07, -1.155992, 1.15599215030693 , -1.507767E-06, -0.5732641, 0.57326412201126, -1.995545E-06, 3.696769, 3.69676947593743
1.13999997451901, -7.58765E-07, -1.165954, 1.16595351696039 , -1.547864E-06, -0.4980703, 0.49807026982548, -2.004845E-06, 3.759693, 3.75969266891533
1.15999997407198, -7.905273E-07, -1.17439, 1.17438971996334 , -1.588118E-06, -0.4218107, 0.421810686591277, -2.012735E-06, 3.812979, 3.81297922134453
1.17999997362494, -8.230974E-07, -1.181283, 1.1812833547595 , -1.628502E-06, -0.3446802, 0.344680190090212, -2.019169E-06, 3.856525, 3.85652494430595
1.19999997317791, -8.564771E-07, -1.186621, 1.18662083148987 , -1.668985E-06, -0.2668754, 0.266875445847962, -2.02416E-06, 3.890237, 3.89023733139091
1.21999997273088, -8.906678E-07, -1.190393, 1.19039273262057 , -1.709538E-06, -0.1885942, 0.18859416247189, -2.027673E-06, 3.914064, 3.91406416893058
1.23999997228384, -9.256705E-07, -1.192593, 1.192593455315 , -1.750133E-06, -0.1100349, 0.110034883036227, -2.029731E-06, 3.927964, 3.9279639720922
1.25999997183681, -9.614853E-07, -1.193221, 1.19322133064309 , -1.790739E-06, -0.03139624, 0.0313962400470254, -2.030316E-06, 3.931932, 3.93193221092277
1.27999997138977, -9.981119E-07, -1.192279, 1.19227886199993 , -1.831328E-06, 0.0471233, 0.0471232980845581, -2.029441E-06, 3.925977, 3.92597699165397
1.29999997094274, -1.035549E-06, -1.189772, 1.18977236747787 , -1.87187E-06, 0.1253262, 0.12532615663019, -2.027093E-06, 3.910143, 3.9101428985601
1.3199999704957, -1.073796E-06, -1.185712, 1.1857120990758 , -1.912336E-06, 0.2030161, 0.203016117224163, -2.023307E-06, 3.884498, 3.88449811935478
1.33999997004867, -1.11285E-06, -1.180112, 1.1801121234899 , -1.952698E-06, 0.2799986, 0.279998630292072, -2.018078E-06, 3.849126, 3.84912562370353
1.35999996960163, -1.152708E-06, -1.17299, 1.17299044132289 , -1.992926E-06, 0.3560815, 0.356081485753868, -2.011404E-06, 3.804143, 3.80414295196586
1.3799999691546, -1.193368E-06, -1.164369, 1.16436898708405 , -2.032993E-06, 0.4310752, 0.43107515573981, -2.003367E-06, 3.749684, 3.74968361854607
1.39999996870756, -1.234826E-06, -1.154273, 1.15427315235204 , -2.072872E-06, 0.5047933, 0.504793345932448, -1.993953E-06, 3.68591, 3.68590950965935
1.41999996826053, -1.277076E-06, -1.142732, 1.14273202419352 , -2.112535E-06, 0.5770535, 0.577053546909384, -1.983153E-06, 3.61301, 3.61301016807611
1.43999996781349, -1.320116E-06, -1.129779, 1.12977850437241 , -2.151957E-06, 0.6476773, 0.64767730236411, -1.971068E-06, 3.531188, 3.5311877727514
1.45999996736646, -1.363938E-06, -1.115449, 1.11544871330345 , -2.19111E-06, 0.7164909, 0.716490864757073, -1.957687E-06, 3.440678, 3.44067811965998
1.47999996691942, -1.408537E-06, -1.099782, 1.09978222847075 , -2.229971E-06, 0.7833252, 0.783325195315674, -1.943056E-06, 3.341717, 3.34171652793941
1.49999996647239, -1.453907E-06, -1.082822, 1.08282184600928 , -2.268516E-06, 0.848017, 0.848016977313215, -1.927208E-06, 3.234589, 3.23458909988461
1.51999996602535, -1.500042E-06, -1.064614, 1.06461369991408 , -2.30672E-06, 0.9104085, 0.910408496859612, -1.910212E-06, 3.119576, 3.11957597732602
1.53999996557832, -1.546933E-06, -1.045207, 1.04520678520317 , -2.344562E-06, 0.9703483, 0.970348298552485, -1.89209E-06, 2.99699, 2.99699020385802
1.55999996513128, -1.594573E-06, -1.024653, 1.0246529579175 , -2.382019E-06, 1.027691, 1.02769148350038, -1.872877E-06, 2.867159, 2.86715936660828
1.57999996468425, -1.642955E-06, -1.003007, 1.00300693512097 , -2.419072E-06, 1.0823, 1.08230018615993, -1.852663E-06, 2.730435, 2.73043513298098
1.59999996423721, -1.692069E-06, -0.980326, 0.980325996877223 , -2.455702E-06, 1.134043, 1.13404345512656, -1.831495E-06, 2.587163, 2.58716344833439
1.61999996379018, -1.741907E-06, -0.95667, 0.956669986249602 , -2.49189E-06, 1.182798, 1.18279838562274, -1.809394E-06, 2.437747, 2.43774652481146
1.63999996334314, -1.792459E-06, -0.932101, 0.932100951673324 , -2.527619E-06, 1.228449, 1.22844934463761, -1.786441E-06, 2.282548, 2.28254795074533
1.65999996289611, -1.843717E-06, -0.9066831, 0.906683087350813 , -2.562873E-06, 1.270889, 1.27088928222915, -1.762714E-06, 2.121997, 2.12199687957837
1.67999996244907, -1.895669E-06, -0.8804826, 0.880482614042415 , -2.597638E-06, 1.310019, 1.31001925468702, -1.738226E-06, 1.956499, 1.95649862289506
1.69999996200204, -1.948307E-06, -0.8535677, 0.853567659857112 , -2.6319E-06, 1.345749, 1.34574890136976, -1.713101E-06, 1.786482, 1.78648233413778
1.719999961555, -2.00162E-06, -0.8260077, 0.826007664206069 , -2.665647E-06, 1.377997, 1.37799692154188, -1.687363E-06, 1.612401, 1.61240100860684
1.73999996110797, -2.055598E-06, -0.7978738, 0.797873795035149 , -2.698869E-06, 1.406691, 1.40669083595535, -1.661101E-06, 1.434696, 1.43469572067357
1.75999996066093, -2.110229E-06, -0.7692384, 0.769238412383113 , -2.731556E-06, 1.431767, 1.43176722526811, -1.634339E-06, 1.253819, 1.25381946563827
1.7799999602139, -2.165503E-06, -0.7401749, 0.740174949172327 , -2.7637E-06, 1.453172, 1.45317196846271, -1.607191E-06, 1.070237, 1.07023715973021
1.79999995976686, -2.221409E-06, -0.7107577, 0.710757732394829 , -2.795294E-06, 1.47086, 1.47086048126486, -1.579724E-06, 0.8844256, 0.884425640107612
1.81999995931983, -2.277935E-06, -0.6810618, 0.681061804298396 , -2.826334E-06, 1.484797, 1.48479747772486, -1.552007E-06, 0.6968498, 0.696849822999775
1.8399999588728, -2.335072E-06, -0.6511627, 0.651162683967962 , -2.856816E-06, 1.494957, 1.49495732784544, -1.524063E-06, 0.5079925, 0.507992506029508
1.85999995842576, -2.392806E-06, -0.6211362, 0.621136188511689 , -2.886736E-06, 1.501324, 1.50132381916324, -1.496028E-06, 0.3183246, 0.318324565890967
1.87999995797873, -2.451128E-06, -0.5910584, 0.591058373456315 , -2.916095E-06, 1.503891, 1.50389051437661, -1.467936E-06, 0.1283348, 0.128334760674289
1.89999995753169, -2.510026E-06, -0.5610052, 0.561005175119293 , -2.944892E-06, 1.502661, 1.50266063213637, -1.439855E-06, -0.06149411, 0.0614941120316273
1.91999995708466, -2.569489E-06, -0.5310522, 0.531052231794852 , -2.97313E-06, 1.497647, 1.49764680862722, -1.411877E-06, -0.2506912, 0.250691175464791
1.93999995663762, -2.629505E-06, -0.5012748, 0.501274824149353 , -3.000811E-06, 1.488871, 1.48887097835843, -1.38408E-06, -0.4387915, 0.438791513445176
1.95999995619059, -2.690064E-06, -0.4717475, 0.471747487791102 , -3.027942E-06, 1.476365, 1.47636508941961, -1.356523E-06, -0.6252944, 0.625294446946662
1.97999995574355, -2.751154E-06, -0.4425441, 0.442544072874991 , -3.054526E-06, 1.46017, 1.46017003059707, -1.329227E-06, -0.8097529, 0.809752941132683
1.99999995529652, -2.812766E-06, -0.4137373, 0.413737326869989 , -3.080573E-06, 1.440336, 1.44033551216455, -1.302328E-06, -0.9917259, 0.991725921631714
2.01999995484948, -2.874888E-06, -0.3853989, 0.385398894559139 , -3.10609E-06, 1.416921, 1.41692113876683, -1.275873E-06, -1.170719, 1.17071866989205
2.03999995440245, -2.937509E-06, -0.357599, 0.357598990214015 , -3.131088E-06, 1.389995, 1.38999462128038, -1.249896E-06, -1.346326, 1.34632587432919
2.05999995395541, -3.000621E-06, -0.3304063, 0.330406337990081 , -3.155578E-06, 1.359633, 1.35963296890625, -1.224521E-06, -1.518083, 1.51808261871387
2.07999995350838, -3.064212E-06, -0.3038879, 0.303887873903465 , -3.179573E-06, 1.325921, 1.3259210586586, -1.199737E-06, -1.685596, 1.68559551239056
2.09999995306134, -3.128274E-06, -0.2781088, 0.278108835237931 , -3.203086E-06, 1.288953, 1.28895258903901, -1.175658E-06, -1.848423, 1.84842348098792
2.11999995261431, -3.192797E-06, -0.2531323, 0.253132253905405 , -3.226133E-06, 1.248829, 1.24882888794362, -1.152341E-06, -2.006185, 2.00618505477938
2.13999995216727, -3.257771E-06, -0.2290191, 0.229019060754105 , -3.24873E-06, 1.205659, 1.20565891266307, -1.12982E-06, -2.158499, 2.15849876403838
2.15999995172024, -3.323189E-06, -0.2058279, 0.205827862051134 , -3.270893E-06, 1.159559, 1.15955924988254, -1.108162E-06, -2.304983, 2.30498313903835
2.1799999512732, -3.389042E-06, -0.1836148, 0.183614790470882 , -3.292641E-06, 1.110653, 1.11065316200744, -1.087426E-06, -2.445304, 2.44530439376855
2.19999995082617, -3.455322E-06, -0.1624333, 0.162433341182267 , -3.313994E-06, 1.059071, 1.05907130241913, -1.067644E-06, -2.579093, 2.57909297943137
2.21999995037913, -3.522021E-06, -0.1423343, 0.142334297342961 , -3.334972E-06, 1.00495, 1.00495040417271, -1.048875E-06, -2.706045, 2.70604491233846
2.2399999499321, -3.589133E-06, -0.1233656, 0.123365610890147 , -3.355595E-06, 0.9484332, 0.948433160787796, -1.031151E-06, -2.825862, 2.82586216926594
2.25999994948506, -3.656651E-06, -0.1055722, 0.105572231177237 , -3.375886E-06, 0.889668, 0.889668047434536, -1.014553E-06, -2.938256, 2.93825578689593
2.27999994903803, -3.724568E-06, -0.08899603, 0.088996030468201 , -3.395867E-06, 0.8288088, 0.82880878449182, -9.990572E-07, -3.042963, 3.04296326637284
2.29999994859099, -3.792879E-06, -0.07367573, 0.0736757294319845 , -3.415562E-06, 0.7660141, 0.766014099128709, -9.84744E-07, -3.139734, 3.13973426818863
2.31999994814396, -3.861579E-06, -0.05964677, 0.0596467667577962 , -3.434995E-06, 0.7014471, 0.701447129257983, -9.716473E-07, -3.228348, 3.2283484935762
2.33999994769692, -3.930663E-06, -0.04694125, 0.0469412544525268 , -3.45419E-06, 0.6352751, 0.635275125512931, -9.597784E-07, -3.3086, 3.30860018730178
2.35999994724989, -4.000127E-06, -0.03558787, 0.0355878660840801 , -3.473174E-06, 0.5676688, 0.567668795596257, -9.491828E-07, -3.380316, 3.38031649589552
2.37999994680285, -4.069966E-06, -0.02561182, 0.0256118162974949 , -3.491971E-06, 0.4988022, 0.498802244675462, -9.398491E-07, -3.443328, 3.44332766532911
2.39999994635582, -4.140178E-06, -0.01703477, 0.017034773286638 , -3.510608E-06, 0.4288521, 0.42885211111552, -9.318455E-07, -3.497507, 3.49750685691846
2.41999994590878, -4.21076E-06, -0.009874824, 0.00987482533228172 , -3.529111E-06, 0.3579974, 0.357997417467346, -9.251494E-07, -3.542735, 3.54273486137402
2.43999994546175, -4.281711E-06, -0.004146443, 0.00414644495930115 , -3.547507E-06, 0.2864191, 0.286419093630825, -9.198061E-07, -3.578916, 3.57891631126416
2.45999994501472, -4.353027E-06, 0.0001395438, 0.000139611665833603 , -3.565823E-06, 0.2142993, 0.214299321204288, -9.158043E-07, -3.605989, 3.60598874092114
2.47999994456768, -4.424709E-06, 0.002975968, 0.0029759712348875 , -3.584086E-06, 0.1418212, 0.141821205661286, -9.131554E-07, -3.623906, 3.62390589714062
2.49999994412065, -4.496756E-06, 0.004359335, 0.00435933749217472 , -3.602324E-06, 0.06916836, 0.0691683591350194, -9.118821E-07, -3.632643, 3.63264250755322
2.51999994367361, -4.569167E-06, 0.00428982, 0.00428982275798077 , -3.620563E-06, -0.003475733, 0.00347573498708099, -9.11939E-07, -3.632205, 3.63220477104198
2.53999994322658, -4.641943E-06, 0.002771261, 0.00277126480301674 , -3.638829E-06, -0.07592797, 0.0759279728807741, -9.133373E-07, -3.622612, 3.62261199951183
2.55999994277954, -4.715086E-06, -0.0001888643, 0.000188923149892858 , -3.657152E-06, -0.1480063, 0.148006260440233, -9.161226E-07, -3.603914, 3.60391449928295
2.57999994233251, -4.788597E-06, -0.004579462, 0.00457946414897626 , -3.675556E-06, -0.2195299, 0.219529867203011, -9.202267E-07, -3.57618, 3.57618045806897
2.59999994188547, -4.862479E-06, -0.01038586, 0.0103858627585707 , -3.694069E-06, -0.29032, 0.290319979214328, -9.256269E-07, -3.539506, 3.53950572013867
2.61999994143844, -4.936733E-06, -0.01758986, 0.0175898622198518 , -3.712717E-06, -0.3602, 0.36019998790747, -9.323799E-07, -3.494, 3.49400043487561
