time, position, , , velocity, , ,acceleration, , 
, x, y, s, x, y, s, x, y, s, 
0.0199999995529652, 0, 0, 0 , 0, 0, 0, 0, 0, 0
0.0399999991059303, -2.302926E-08, 0.1004438, 0.100443795323375 , -1.213342E-08, -0.0978108, 0.0978108048439033, -6.066708E-07, -4.89054, 4.89054012298588
0.0599999986588955, -2.361811E-08, 0.09675664, 0.0967566445469885 , -2.921959E-08, -0.1853587, 0.185358703136446, -8.543087E-07, -4.377395, 4.37739515304574
0.0799999982118607, -2.45283E-08, 0.0913251, 0.0913251042366061 , -4.533156E-08, -0.2723778, 0.272377789020542, -8.055988E-07, -4.350955, 4.35095453262337
0.0999999977648258, -2.576209E-08, 0.08416388, 0.0841638818383256 , -6.154669E-08, -0.3587014, 0.358701378107076, -8.107564E-07, -4.31618, 4.31617975234993
0.119999997317791, -2.732216E-08, 0.07529084, 0.0752908363938381 , -7.788937E-08, -0.4441645, 0.444164544343955, -8.171338E-07, -4.273159, 4.27315855026253
0.139999996870756, -2.921165E-08, 0.06472696, 0.0647269561886853 , -9.438361E-08, -0.5286041, 0.528604149818429, -8.247121E-07, -4.221981, 4.22198057174691
0.159999996423721, -3.143418E-08, 0.05249633, 0.0524963252246474 , -1.110531E-07, -0.6118593, 0.611859321594248, -8.334762E-07, -4.162759, 4.16275882720956
0.179999995976686, -3.399377E-08, 0.03862613, 0.0386261343956143 , -1.279213E-07, -0.6937718, 0.693771839141857, -8.434075E-07, -4.095626, 4.09562587738046
0.199999995529652, -3.689492E-08, 0.02314661, 0.0231466069817837 , -1.45011E-07, -0.7741862, 0.774186193943037, -8.544859E-07, -4.020718, 4.0207176208497
0.219999995082617, -4.014257E-08, 0.00609096, 0.0060909599998426 , -1.623448E-07, -0.8529502, 0.852950155735031, -8.666895E-07, -3.938198, 3.9381980895997
0.239999994635582, -4.374206E-08, -0.01250466, 0.0125046577305367 , -1.799446E-07, -0.929915, 0.92991495132448, -8.799915E-07, -3.84824, 3.84823989868174
0.259999994188547, -4.769917E-08, -0.03260121, 0.0326012112200609 , -1.978319E-07, -1.004936, 1.004935503006, -8.943658E-07, -3.751028, 3.75102758407603
0.279999993741512, -5.202011E-08, -0.05415691, 0.0541569069028151 , -2.160276E-07, -1.077871, 1.0778708457947, -9.097818E-07, -3.646767, 3.64676713943493
0.299999993294477, -5.671145E-08, -0.0771272, 0.0771272033453196 , -2.345517E-07, -1.148584, 1.14858412742617, -9.262081E-07, -3.535664, 3.53566408157361
0.319999992847443, -6.178018E-08, -0.1014649, 0.101464949548263 , -2.53424E-07, -1.216943, 1.21694302558902, -9.436114E-07, -3.417945, 3.41794490814222
0.339999992400408, -6.723364E-08, -0.1271205, 0.127120479941386 , -2.726632E-07, -1.28282, 1.28282046318057, -9.619598E-07, -3.293872, 3.29387187957778
0.359999991953373, -7.307955E-08, -0.1540416, 0.154041647911089 , -2.922874E-07, -1.346094, 1.34609389305118, -9.812098E-07, -3.163671, 3.16367149353043
0.379999991506338, -7.932595E-08, -0.182174, 0.182174012064951 , -3.123139E-07, -1.406646, 1.4066462516785, -1.001325E-06, -3.027618, 3.02761793136613
0.399999991059303, -8.598123E-08, -0.2114609, 0.211460873484629 , -3.327592E-07, -1.464366, 1.46436560153965, -1.022269E-06, -2.885967, 2.88596749305743
0.419999990612268, -9.30541E-08, -0.2418434, 0.241843417286891 , -3.536391E-07, -1.519146, 1.51914620399479, -1.043995E-06, -2.73903, 2.73903012275716
0.439999990165234, -1.005535E-07, -0.2732609, 0.273260891437549 , -3.749683E-07, -1.570888, 1.57088804245, -1.066456E-06, -2.587092, 2.58709192276023
0.459999989718199, -1.084888E-07, -0.3056506, 0.3056505918503 , -3.967606E-07, -1.619497, 1.6194971799851, -1.089616E-06, -2.430457, 2.43045687675501
0.479999989271164, -1.168694E-07, -0.3389481, 0.338948100805303 , -4.190291E-07, -1.664886, 1.6648856401444, -1.113426E-06, -2.269423, 2.26942300796536
0.499999988824129, -1.257052E-07, -0.3730874, 0.373087376356146 , -4.417858E-07, -1.706972, 1.70697200298315, -1.137836E-06, -2.104318, 2.10431814193756
0.519999988377094, -1.35006E-07, -0.4080009, 0.408000886440299 , -4.650418E-07, -1.745681, 1.74568140506751, -1.162799E-06, -1.93547, 1.93547010421788
0.539999987930059, -1.447822E-07, -0.4436197, 0.44361969828608 , -4.888071E-07, -1.780946, 1.78094565868384, -1.188266E-06, -1.763213, 1.76321268081705
0.559999987483025, -1.55044E-07, -0.4798737, 0.47987368702891 , -5.13091E-07, -1.812703, 1.81270325183876, -1.214192E-06, -1.58788, 1.58787965774583
0.57999998703599, -1.658021E-07, -0.5166916, 0.516691625118282 , -5.379013E-07, -1.8409, 1.84089970588692, -1.240517E-06, -1.409823, 1.40982270240838
0.599999986588955, -1.77067E-07, -0.5540013, 0.554001331329374 , -5.632452E-07, -1.865488, 1.86548769474038, -1.267193E-06, -1.229399, 1.22939944267338
0.61999998614192, -1.888496E-07, -0.5917298, 0.591729819774658 , -5.891286E-07, -1.886426, 1.88642609119425, -1.294171E-06, -1.04692, 1.04691982269367
0.639999985694885, -2.011607E-07, -0.6298034, 0.629803419113191 , -6.155566E-07, -1.903682, 1.90368211269389, -1.321399E-06, -0.8628011, 0.862801074982701
0.65999998524785, -2.140114E-07, -0.668148, 0.668147981166874 , -6.425329E-07, -1.917229, 1.91722941398631, -1.348815E-06, -0.6773651, 0.677365064622315
0.679999984800816, -2.274126E-07, -0.7066889, 0.706688940525092 , -6.700603E-07, -1.927049, 1.9270489215852, -1.376372E-06, -0.4909754, 0.490975379945777
0.699999984353781, -2.413754E-07, -0.7453515, 0.745351493358651 , -6.981407E-07, -1.933129, 1.93312895298017, -1.404018E-06, -0.3040016, 0.304001569751167
0.719999983906746, -2.559109E-07, -0.7840608, 0.784060776233715 , -7.267746E-07, -1.935465, 1.93546497821821, -1.431695E-06, -0.1168013, 0.11680126191063
0.739999983459711, -2.710301E-07, -0.8227419, 0.822741925716445 , -7.559617E-07, -1.93406, 1.93405950069442, -1.459352E-06, 0.07027388, 0.0702738762053385
0.759999983012676, -2.867441E-07, -0.8613204, 0.861320376396227 , -7.857004E-07, -1.928923, 1.92892289161698, -1.486939E-06, 0.2568305, 0.256830453876985
0.779999982565641, -3.030639E-07, -0.8997218, 0.899721801281026 , -8.159883E-07, -1.920072, 1.92007195949572, -1.514394E-06, 0.4425466, 0.442546606066434
0.799999982118607, -3.200003E-07, -0.9378724, 0.937872409820611 , -8.468219E-07, -1.907531, 1.9075310230257, -1.541682E-06, 0.6270468, 0.627046823503482
0.819999981671572, -3.375643E-07, -0.975699, 0.975699007511197 , -8.781964E-07, -1.891331, 1.89133131504079, -1.568722E-06, 0.8099854, 0.809985399247735
0.839999981224537, -3.557664E-07, -1.013129, 1.01312923431403 , -9.101061E-07, -1.871511, 1.87151122093223, -1.595487E-06, 0.9910047, 0.991004705430362
0.859999980777502, -3.746173E-07, -1.050092, 1.05009150505073 , -9.425445E-07, -1.848116, 1.84811604023004, -1.621919E-06, 1.169759, 1.1697590351116
0.879999980330467, -3.941274E-07, -1.086515, 1.08651542663581 , -9.755038E-07, -1.821198, 1.82119798660304, -1.647965E-06, 1.345903, 1.34590268135172
0.899999979883432, -4.143069E-07, -1.122332, 1.12233173847206 , -1.008975E-06, -1.790816, 1.79081571102171, -1.673578E-06, 1.519114, 1.51911377906892
0.919999979436398, -4.351658E-07, -1.157472, 1.15747237205514 , -1.04295E-06, -1.757034, 1.75703442096741, -1.698709E-06, 1.689065, 1.68906450271692
0.939999978989363, -4.567142E-07, -1.191871, 1.19187092781076 , -1.077416E-06, -1.719926, 1.71992611885105, -1.723299E-06, 1.855415, 1.8554151058205
0.959999978542328, -4.789614E-07, -1.225462, 1.22546231746683 , -1.112362E-06, -1.679569, 1.67956864833869, -1.74731E-06, 2.017874, 2.01787352562026
0.979999978095293, -5.019169E-07, -1.258183, 1.2581832408906 , -1.147776E-06, -1.636046, 1.63604640960734, -1.770712E-06, 2.176112, 2.17611193656993
0.999999977648258, -5.255898E-07, -1.289972, 1.28997218608867 , -1.183645E-06, -1.58945, 1.5894495248799, -1.793444E-06, 2.329844, 2.32984423637459
1.01999997720122, -5.499889E-07, -1.32077, 1.32076966762554 , -1.219954E-06, -1.539874, 1.53987383842517, -1.815465E-06, 2.478784, 2.47878432273931
1.03999997675419, -5.751227E-07, -1.350518, 1.35051810741437 , -1.256689E-06, -1.487421, 1.48742079734855, -1.836736E-06, 2.622652, 2.62265205383365
1.05999997630715, -6.009993E-07, -1.379162, 1.37916207313551 , -1.293833E-06, -1.432197, 1.43219733238279, -1.857222E-06, 2.761173, 2.76117324829164
1.07999997586012, -6.276267E-07, -1.406648, 1.40664839744582 , -1.331371E-06, -1.374315, 1.37431526184147, -1.876879E-06, 2.894104, 2.8941035270697
1.09999997541308, -6.550124E-07, -1.432926, 1.43292617797867 , -1.369284E-06, -1.313892, 1.31389164924693, -1.89566E-06, 3.021181, 3.02118062973082
1.11999997496605, -6.831635E-07, -1.457947, 1.45794713497178 , -1.407555E-06, -1.251048, 1.25104784965594, -1.913554E-06, 3.14219, 3.14218997955381
1.13999997451901, -7.120868E-07, -1.481665, 1.48166537284868 , -1.446165E-06, -1.18591, 1.18590998649685, -1.930505E-06, 3.256893, 3.25689315795956
1.15999997407198, -7.417887E-07, -1.504037, 1.50403749942798 , -1.485095E-06, -1.118608, 1.11860823631385, -1.946501E-06, 3.365088, 3.36508750915584
1.17999997362494, -7.722751E-07, -1.525023, 1.52502298355122 , -1.524325E-06, -1.049277, 1.04927682876698, -1.961507E-06, 3.46657, 3.46657037735041
1.19999997317791, -8.035519E-07, -1.544584, 1.54458403587362 , -1.563835E-06, -0.9780533, 0.978053271771728, -1.975502E-06, 3.561178, 3.56117796897943
1.21999997273088, -8.35624E-07, -1.562686, 1.56268560886405 , -1.603604E-06, -0.9050789, 0.905078947545519, -1.988445E-06, 3.648716, 3.64871621131951
1.23999997228384, -8.684962E-07, -1.579296, 1.57929551601434 , -1.643611E-06, -0.8304982, 0.830498158933359, -2.000326E-06, 3.729039, 3.72903943061882
1.25999997183681, -9.021728E-07, -1.594385, 1.59438467025782 , -1.683833E-06, -0.7544578, 0.754457831384631, -2.011097E-06, 3.802016, 3.80201649665886
1.27999997138977, -9.366578E-07, -1.607927, 1.60792684555081 , -1.724249E-06, -0.6771077, 0.677107691767027, -2.020806E-06, 3.867507, 3.86750698089652
1.29999997094274, -9.719545E-07, -1.619899, 1.61989879608183 , -1.764836E-06, -0.5985996, 0.598599553110817, -2.02935E-06, 3.925407, 3.92540693283134
1.3199999704957, -1.008066E-06, -1.63028, 1.63028049469025 , -1.805572E-06, -0.5190873, 0.519087314608853, -2.036785E-06, 3.975612, 3.97561192512564
1.33999997004867, -1.044995E-06, -1.639055, 1.63905501365695 , -1.846433E-06, -0.4387263, 0.438726335767817, -2.043055E-06, 4.018049, 4.01804924011282
1.35999996960163, -1.082743E-06, -1.646209, 1.64620852470434 , -1.887396E-06, -0.3576735, 0.357673466210577, -2.048159E-06, 4.052644, 4.05264377594046
1.3799999691546, -1.121311E-06, -1.65173, 1.65173029899635 , -1.928438E-06, -0.2760865, 0.276086509234488, -2.052116E-06, 4.079348, 4.07934808731131
1.39999996870756, -1.160702E-06, -1.655613, 1.65561282634776 , -1.969536E-06, -0.194124, 0.19412398339317, -2.05489E-06, 4.098126, 4.0981264114385
1.41999996826053, -1.200915E-06, -1.657852, 1.65785169601484 , -2.010666E-06, -0.1119449, 0.111944943684515, -2.056515E-06, 4.108952, 4.10895204544119
1.43999996781349, -1.241951E-06, -1.658446, 1.65844583511399 , -2.051805E-06, -0.02970847, 0.02970847494535, -2.056913E-06, 4.111824, 4.11182355880789
1.45999996736646, -1.28381E-06, -1.657397, 1.65739727020313 , -2.092928E-06, 0.05242662, 0.0524266213596395, -2.056174E-06, 4.106755, 4.10675477981619
1.47999996691942, -1.32649E-06, -1.654711, 1.65471124649101 , -2.134013E-06, 0.1343019, 0.134301871078279, -2.054242E-06, 4.093762, 4.09376239776663
1.49999996647239, -1.369991E-06, -1.650396, 1.65039610862789 , -2.175036E-06, 0.2157598, 0.215759769093032, -2.051161E-06, 4.072895, 4.07289505004934
1.51999996602535, -1.41431E-06, -1.644463, 1.64446318149627 , -2.215974E-06, 0.2966439, 0.296643853195838, -2.046909E-06, 4.044204, 4.04420423507742
1.53999996557832, -1.459446E-06, -1.636927, 1.63692724704807 , -2.256805E-06, 0.376799, 0.376799047000014, -2.041531E-06, 4.00776, 4.00775957107596
1.55999996513128, -1.505396E-06, -1.627806, 1.62780582904885 , -2.297505E-06, 0.456072, 0.456072002655094, -2.035006E-06, 3.963648, 3.96364784240775
1.57999996468425, -1.552157E-06, -1.61712, 1.6171195507057 , -2.338052E-06, 0.5343114, 0.534311413770069, -2.027355E-06, 3.911971, 3.91197061538749
1.59999996423721, -1.599726E-06, -1.604892, 1.60489213466724 , -2.378425E-06, 0.6113681, 0.611368060116626, -2.018635E-06, 3.852832, 3.85283231735282
1.61999996379018, -1.648098E-06, -1.59115, 1.59115016460504 , -2.418601E-06, 0.6870956, 0.687095642094101, -2.008812E-06, 3.786379, 3.78637909889274
1.63999996334314, -1.697269E-06, -1.575923, 1.57592320442291 , -2.458559E-06, 0.7613503, 0.761350333694613, -1.99791E-06, 3.712735, 3.7127346992498
1.65999996289611, -1.747235E-06, -1.559243, 1.55924332141974 , -2.498278E-06, 0.8339918, 0.833991765979694, -1.985961E-06, 3.632072, 3.63207173347527
1.67999996244907, -1.797989E-06, -1.541146, 1.54114568233595 , -2.537739E-06, 0.9048828, 0.904882788661701, -1.973024E-06, 3.544551, 3.54455113411005
1.69999996200204, -1.849528E-06, -1.521668, 1.52166783809774 , -2.576921E-06, 0.9738899, 0.97388994694097, -1.95912E-06, 3.450358, 3.4503579139715
1.719999961555, -1.901844E-06, -1.50085, 1.50085020065428 , -2.615806E-06, 1.040884, 1.04088354111046, -1.944238E-06, 3.34968, 3.3496797084814
1.73999996110797, -1.954931E-06, -1.478735, 1.47873544693122 , -2.654374E-06, 1.105738, 1.10573816299757, -1.928413E-06, 3.242731, 3.24273109436092
1.75999996066093, -2.008783E-06, -1.455369, 1.45536875724931 , -2.692608E-06, 1.168333, 1.16833281517339, -1.91169E-06, 3.129733, 3.12973260879575
1.7799999602139, -2.063393E-06, -1.430798, 1.43079769611507 , -2.730491E-06, 1.228551, 1.22855067253416, -1.894136E-06, 3.010893, 3.01089286804259
1.79999995976686, -2.118753E-06, -1.405072, 1.40507209301155 , -2.768006E-06, 1.28628, 1.28628039360344, -1.875742E-06, 2.886486, 2.88648605346741
1.81999995931983, -2.174856E-06, -1.378244, 1.37824380397968 , -2.805137E-06, 1.341415, 1.34141540527637, -1.856563E-06, 2.756751, 2.75675058364931
1.8399999588728, -2.231693E-06, -1.350367, 1.35036671161836 , -2.841869E-06, 1.393854, 1.39385390281967, -1.836622E-06, 2.621925, 2.62192487716739
1.85999995842576, -2.289257E-06, -1.321497, 1.32149672508438 , -2.878189E-06, 1.4435, 1.44350004196454, -1.815988E-06, 2.482307, 2.48230695724554
1.87999995797873, -2.347539E-06, -1.291691, 1.2916914224646 , -2.914082E-06, 1.490263, 1.4902634620695, -1.79466E-06, 2.338171, 2.33817100524971
1.89999995753169, -2.406529E-06, -1.26101, 1.2610102891945 , -2.949537E-06, 1.534059, 1.5340591669111, -1.772753E-06, 2.189785, 2.18978524208141
1.91999995708466, -2.46622E-06, -1.229514, 1.22951412201175 , -2.984542E-06, 1.574809, 1.57480859756753, -1.75022E-06, 2.037472, 2.03747153282241
1.93999995663762, -2.526602E-06, -1.197265, 1.19726538658409 , -3.019084E-06, 1.612439, 1.61243867874428, -1.72713E-06, 1.881504, 1.88150405883868
1.95999995619059, -2.587665E-06, -1.164328, 1.16432774067213 , -3.053156E-06, 1.646883, 1.64688301086709, -1.703597E-06, 1.722217, 1.72221660614098
1.97999995574355, -2.6494E-06, -1.130766, 1.13076615333868 , -3.086748E-06, 1.678081, 1.67808115482614, -1.679587E-06, 1.559907, 1.55990719795317
1.99999995529652, -2.711797E-06, -1.096647, 1.09664654732086 , -3.119852E-06, 1.705979, 1.70597922802257, -1.655212E-06, 1.394904, 1.39490365982154
2.01999995484948, -2.774846E-06, -1.062036, 1.0620359182394 , -3.152462E-06, 1.73053, 1.73052978515912, -1.630463E-06, 1.227528, 1.22752785682786
2.03999995440245, -2.838537E-06, -1.027002, 1.02700209618007 , -3.184569E-06, 1.751692, 1.75169169903091, -1.605383E-06, 1.058096, 1.05809569358947
2.05999995395541, -2.902861E-06, -0.9916135, 0.991613507275062 , -3.216171E-06, 1.769431, 1.76943075657183, -1.580088E-06, 0.8869529, 0.886952877046085
2.07999995350838, -2.967806E-06, -0.9559391, 0.955939114098387 , -3.247263E-06, 1.783719, 1.78371918201742, -1.554599E-06, 0.7144213, 0.714421272279523
2.09999995306134, -3.033363E-06, -0.9200484, 0.920048356061214 , -3.277842E-06, 1.794536, 1.79453647136988, -1.528952E-06, 0.5408645, 0.540864467623011
2.11999995261431, -3.099521E-06, -0.884011, 0.884010970597933 , -3.307905E-06, 1.801868, 1.80186808109587, -1.503167E-06, 0.3665805, 0.366580486300689
2.13999995216727, -3.16627E-06, -0.8478968, 0.847896814352225 , -3.337452E-06, 1.805707, 1.80570662021945, -1.477338E-06, 0.191927, 0.191926956182444
2.15999995172024, -3.233599E-06, -0.8117758, 0.811775803572419 , -3.366482E-06, 1.806051, 1.80605137348489, -1.451508E-06, 0.01723766, 0.0172376633301555
2.1799999512732, -3.301499E-06, -0.7757176, 0.775717616088264 , -3.394997E-06, 1.802909, 1.80290853977523, -1.425724E-06, -0.1571417, 0.157141685492308
2.19999995082617, -3.369959E-06, -0.7397918, 0.739791810520218 , -3.422998E-06, 1.796291, 1.79629087448446, -1.400042E-06, -0.3308833, 0.330883264544588
2.21999995037913, -3.438969E-06, -0.7040675, 0.704067468651587 , -3.450487E-06, 1.786218, 1.78621792793607, -1.374485E-06, -0.5036473, 0.503647327424971
2.2399999499321, -3.508518E-06, -0.6686131, 0.668613135823872 , -3.47747E-06, 1.772716, 1.77271568775518, -1.349133E-06, -0.675112, 0.67511200904981
2.25999994948506, -3.578597E-06, -0.6334968, 0.633496820936774 , -3.503951E-06, 1.755817, 1.75581693649642, -1.324042E-06, -0.8449376, 0.844937562943542
2.27999994903803, -3.649196E-06, -0.5987856, 0.598785579215679 , -3.529935E-06, 1.735561, 1.73556089401604, -1.29919E-06, -1.012802, 1.01280212402427
2.29999994859099, -3.720304E-06, -0.5645457, 0.564545691025594 , -3.555429E-06, 1.711993, 1.71199309826266, -1.274736E-06, -1.17839, 1.17838978767464
2.31999994814396, -3.791913E-06, -0.5308424, 0.530842363847924 , -3.580442E-06, 1.685166, 1.68516552448653, -1.250612E-06, -1.341379, 1.34137868881284
2.33999994769692, -3.864013E-06, -0.4977396, 0.497739642873504 , -3.604981E-06, 1.655136, 1.65513598919307, -1.226977E-06, -1.501477, 1.50147676467946
2.35999994724989, -3.936594E-06, -0.4653003, 0.465300261990987 , -3.629057E-06, 1.621969, 1.62196886539865, -1.203773E-06, -1.658356, 1.65835618972822
2.37999994680285, -4.009647E-06, -0.4335856, 0.433585584182206 , -3.652679E-06, 1.585734, 1.58573424816552, -1.181093E-06, -1.811731, 1.8117308616642
2.39999994635582, -4.083165E-06, -0.4026554, 0.402655422708233 , -3.675858E-06, 1.546508, 1.54650795460184, -1.158969E-06, -1.961315, 1.96131467819248
2.41999994590878, -4.157137E-06, -0.372568, 0.372567981504745 , -3.698607E-06, 1.504372, 1.50437152386166, -1.13746E-06, -2.106822, 2.10682153701813
2.43999994546175, -4.231556E-06, -0.3433797, 0.343379735972729 , -3.720939E-06, 1.459412, 1.45941197872636, -1.116575E-06, -2.247977, 2.24797725677518
2.45999994501472, -4.306413E-06, -0.3151453, 0.3151453137692 , -3.742867E-06, 1.411722, 1.41172170639534, -1.096419E-06, -2.384514, 2.38451361656214
2.47999994456768, -4.381701E-06, -0.2879173, 0.287917345795595 , -3.764406E-06, 1.361398, 1.36139786243959, -1.076933E-06, -2.516192, 2.51619219779991
2.49999994412065, -4.457412E-06, -0.2617465, 0.261746496000097 , -3.78557E-06, 1.308543, 1.30854272842955, -1.058231E-06, -2.642757, 2.64275670051596
2.51999994367361, -4.53354E-06, -0.2366812, 0.23668123786023 , -3.806376E-06, 1.253263, 1.25326323509794, -1.040303E-06, -2.763975, 2.76397466659565
2.53999994322658, -4.610076E-06, -0.2127678, 0.212767824580545 , -3.826841E-06, 1.195671, 1.19567084313051, -1.023227E-06, -2.87962, 2.87961959838885
2.55999994277954, -4.687016E-06, -0.1900502, 0.190050199685672 , -3.84698E-06, 1.135881, 1.13588118553813, -1.006947E-06, -2.989483, 2.98948287963884
2.57999994233251, -4.764352E-06, -0.1685699, 0.168569922514533 , -3.866812E-06, 1.074014, 1.07401371002893, -9.915993E-07, -3.093374, 3.09337377548234
2.59999994188547, -4.842079E-06, -0.1483661, 0.148366078813411 , -3.886355E-06, 1.010192, 1.01019215584549, -9.771611E-07, -3.191078, 3.19107770919815
2.61999994143844, -4.920192E-06, -0.1294752, 0.12947520623019 , -3.905627E-06, 0.9445434, 0.944543421276538, -9.636096E-07, -3.282437, 3.28243684768691
2.6399999409914, -4.998685E-06, -0.1119312, 0.111931249610938 , -3.924649E-06, 0.8771977, 0.877197742470938, -9.510813E-07, -3.367284, 3.36728405952467
