time, position, , , velocity, , ,acceleration, , 
, x, y, s, x, y, s, x, y, s, 
0.0199999995529652, 0, 0, 0 , 0, 0, 0, 0, 0, 0
0.0399999991059303, -2.302995E-08, 0.1004493, 0.100449331104758 , -1.216758E-08, -0.09753415, 0.0975341498851784, -6.083793E-07, -4.876708, 4.87670755386356
0.0599999986588955, -2.366472E-08, 0.09707336, 0.0970733612775831 , -3.151598E-08, -0.1697995, 0.169799506664279, -9.674199E-07, -3.613268, 3.6132678985597
0.0799999982118607, -2.466789E-08, 0.09227119, 0.0922711938619647 , -4.998002E-08, -0.2409093, 0.240909293293958, -9.232018E-07, -3.555489, 3.55548930168164
0.0999999977648258, -2.604402E-08, 0.08607337, 0.0860733687877694 , -6.866429E-08, -0.3105319, 0.310531854629524, -9.342138E-07, -3.481128, 3.48112821578992
0.119999997317791, -2.779863E-08, 0.07851674, 0.07851673662663 , -8.761661E-08, -0.3783441, 0.378344058990489, -9.476161E-07, -3.39061, 3.39061021804823
0.139999996870756, -2.993812E-08, 0.06964428, 0.0696442797780101 , -1.068831E-07, -0.4440327, 0.44403272867204, -9.633269E-07, -3.284434, 3.28443360328688
0.159999996423721, -3.246975E-08, 0.05950492, 0.0595049187541097 , -1.265085E-07, -0.5072961, 0.507296085357682, -9.812659E-07, -3.163168, 3.16316795349136
0.179999995976686, -3.540162E-08, 0.04815326, 0.0481532625854146 , -1.465352E-07, -0.5678453, 0.567845284938831, -1.001337E-06, -3.02746, 3.02746009826677
0.199999995529652, -3.874264E-08, 0.03564935, 0.0356493517756673 , -1.670039E-07, -0.6254059, 0.625405907630943, -1.023436E-06, -2.878031, 2.87803125381488
0.219999995082617, -4.250245E-08, 0.02205834, 0.0220583416521959 , -1.879529E-07, -0.6797186, 0.679718613624599, -1.047449E-06, -2.715635, 2.71563529968282
0.239999994635582, -4.66914E-08, 0.007450215, 0.00745021458729831 , -2.09418E-07, -0.7305408, 0.730540752410919, -1.073256E-06, -2.541107, 2.54110693931602
0.259999994188547, -5.132053E-08, -0.008100583, 0.00810058321820065 , -2.314325E-07, -0.7776475, 0.77764749526981, -1.100723E-06, -2.355337, 2.35533714294459
0.279999993741512, -5.640145E-08, -0.02451551, 0.0245155114681177 , -2.540268E-07, -0.8208327, 0.820832669734994, -1.129716E-06, -2.159259, 2.15925884246856
0.299999993294477, -6.194633E-08, -0.04171233, 0.041712325066374 , -2.772285E-07, -0.8599098, 0.859909772872969, -1.160086E-06, -1.953855, 1.95385515689884
0.319999992847443, -6.796782E-08, -0.05960548, 0.0596054792404562 , -3.010622E-07, -0.8947126, 0.894712567329457, -1.191685E-06, -1.74014, 1.7401397228245
0.339999992400408, -7.4479E-08, -0.07810652, 0.0781065151095745 , -3.255494E-07, -0.925096, 0.925096035003719, -1.224356E-06, -1.519173, 1.51917338371326
0.359999991953373, -8.149333E-08, -0.09712454, 0.0971245393157347 , -3.507081E-07, -0.9509368, 0.950936794281071, -1.257936E-06, -1.292038, 1.2920379638678
0.379999991506338, -8.902452E-08, -0.1165666, 0.116566643118892 , -3.765534E-07, -0.9721335, 0.972133517265393, -1.292267E-06, -1.059836, 1.05983614921649
0.399999991059303, -9.708656E-08, -0.1363384, 0.136338353157078 , -4.03097E-07, -0.9886078, 0.988607764244162, -1.32718E-06, -0.8237123, 0.823712348939057
0.419999990612268, -1.056936E-07, -0.1563441, 0.156344056129491 , -4.303472E-07, -1.000303, 1.000303387642, -1.362508E-06, -0.5847812, 0.584781169892945
0.439999990165234, -1.148598E-07, -0.1764875, 0.176487535238303 , -4.583087E-07, -1.007188, 1.00718784332286, -1.398075E-06, -0.3442228, 0.344222784045198
0.459999989718199, -1.245995E-07, -0.1966723, 0.196672320365945 , -4.86983E-07, -1.009251, 1.00925099849713, -1.433716E-06, -0.1031578, 0.103157758722732
0.479999989271164, -1.349269E-07, -0.2168023, 0.216802254319233 , -5.163682E-07, -1.006506, 1.00650620460524, -1.46926E-06, 0.1372397, 0.137239694603202
0.499999988824129, -1.458562E-07, -0.2367819, 0.23678189516072 , -5.46459E-07, -0.9989893, 0.998989343643338, -1.50454E-06, 0.375843, 0.375843048098715
0.519999988377094, -1.574011E-07, -0.256517, 0.256516963243533 , -5.772467E-07, -0.9867588, 0.986758828163316, -1.539385E-06, 0.6115258, 0.611525774004013
0.539999987930059, -1.695755E-07, -0.2759148, 0.275914788246207 , -6.087195E-07, -0.9698952, 0.969895184040261, -1.573636E-06, 0.8431822, 0.843182206155338
0.559999987483025, -1.823928E-07, -0.2948847, 0.294884741306361 , -6.40862E-07, -0.9485008, 0.948500752449252, -1.607128E-06, 1.069722, 1.0697215795529
0.57999998703599, -1.958659E-07, -0.3133387, 0.313338667154373 , -6.736564E-07, -0.9226986, 0.922698616981752, -1.639717E-06, 1.290107, 1.29010677337751
0.599999986588955, -2.100076E-07, -0.3311912, 0.331191241741247 , -7.070811E-07, -0.8926324, 0.89263242483167, -1.671236E-06, 1.50331, 1.50330960750673
0.61999998614192, -2.248298E-07, -0.3483605, 0.348360508680416 , -7.411121E-07, -0.8584654, 0.858465433121047, -1.701551E-06, 1.70835, 1.70834958553399
0.639999985694885, -2.403443E-07, -0.3647681, 0.364768058061679 , -7.757226E-07, -0.8203796, 0.820379555225739, -1.730524E-06, 1.904294, 1.90429389476855
0.65999998524785, -2.565619E-07, -0.3803395, 0.380339533090678 , -8.10883E-07, -0.7785746, 0.778574585915034, -1.758019E-06, 2.090249, 2.09024858474805
0.679999984800816, -2.734931E-07, -0.3950048, 0.395004838705158 , -8.465612E-07, -0.7332668, 0.733266830444825, -1.783911E-06, 2.265388, 2.2653877735145
0.699999984353781, -2.911476E-07, -0.4086986, 0.408698588609799 , -8.827232E-07, -0.6846883, 0.684688329697224, -1.808098E-06, 2.428925, 2.42892503738471
0.719999983906746, -3.095342E-07, -0.4213603, 0.421360284090156 , -9.19332E-07, -0.6330857, 0.633085668087673, -1.830443E-06, 2.580133, 2.58013319969242
0.739999983459711, -3.286612E-07, -0.4329346, 0.432934641838198 , -9.563498E-07, -0.5787185, 0.578718543053463, -1.85089E-06, 2.718356, 2.71835637092653
0.759999983012676, -3.485359E-07, -0.4433718, 0.443371802568573 , -9.937362E-07, -0.5218586, 0.521858572960846, -1.869319E-06, 2.842999, 2.84299850463929
0.779999982565641, -3.691649E-07, -0.4526276, 0.452627569437178 , -1.031449E-06, -0.4627879, 0.462787926198201, -1.885655E-06, 2.953532, 2.95353245735229
0.799999982118607, -3.905539E-07, -0.4606635, 0.460663497448133 , -1.069446E-06, -0.401798, 0.401797950269215, -1.899843E-06, 3.049499, 3.0494987964636
0.819999981671572, -4.127075E-07, -0.4674472, 0.467447221279326 , -1.107683E-06, -0.3391876, 0.339187622072121, -1.911826E-06, 3.130517, 3.13051652908384
0.839999981224537, -4.356298E-07, -0.4729525, 0.472952455282412 , -1.146114E-06, -0.2752625, 0.275262534620764, -1.921546E-06, 3.196254, 3.19625449180661
0.859999980777502, -4.593236E-07, -0.4771591, 0.477159082889778 , -1.184693E-06, -0.2103327, 0.210332661870478, -1.92897E-06, 3.246494, 3.24649381637631
0.879999980330467, -4.837912E-07, -0.4800533, 0.480053305626159 , -1.223375E-06, -0.1447116, 0.144711554055617, -1.93408E-06, 3.281055, 3.28105545044002
0.899999979883432, -5.090334E-07, -0.4816276, 0.481627583503992 , -1.262112E-06, -0.07871437, 0.0787143707376575, -1.936871E-06, 3.299859, 3.29985928535518
0.919999979436398, -5.350506E-07, -0.4818807, 0.481880694628059 , -1.300858E-06, -0.01265672, 0.0126567185593591, -1.937315E-06, 3.302883, 3.30288267135677
0.939999978989363, -5.618419E-07, -0.4808177, 0.480817735195488 , -1.339567E-06, 0.05314706, 0.0531470626761454, -1.935433E-06, 3.290189, 3.29018902778682
0.959999978542328, -5.894057E-07, -0.47845, 0.478450000286465 , -1.378192E-06, 0.1183852, 0.118385225542461, -1.931255E-06, 3.261908, 3.26190829277096
0.979999978095293, -6.177395E-07, -0.474795, 0.474794983864232 , -1.416688E-06, 0.1827505, 0.18275047839237, -1.924792E-06, 3.218263, 3.21826267242489
0.999999977648258, -6.468397E-07, -0.4698762, 0.469876170158831 , -1.45501E-06, 0.2459409, 0.2459409236951, -1.916123E-06, 3.159522, 3.15952229499875
1.01999997720122, -6.76702E-07, -0.4637229, 0.463722944260137 , -1.493115E-06, 0.3076617, 0.307661652568626, -1.905249E-06, 3.086036, 3.08603644371092
1.03999997675419, -7.073212E-07, -0.4563704, 0.456370413303923 , -1.530961E-06, 0.3676263, 0.367626309398024, -1.892261E-06, 2.998233, 2.9982328414923
1.05999997630715, -7.386913E-07, -0.4478593, 0.44785925746025 , -1.568505E-06, 0.4255581, 0.425558149817496, -1.877243E-06, 2.896592, 2.89659214019836
1.07999997586012, -7.708055E-07, -0.4382354, 0.438235431910239 , -1.60571E-06, 0.4811913, 0.481191337111291, -1.860241E-06, 2.781659, 2.78165936470094
1.09999997541308, -8.036563E-07, -0.42755, 0.427549988032143 , -1.642538E-06, 0.5342724, 0.534272432329795, -1.84138E-06, 2.654055, 2.65405488014285
1.11999997496605, -8.372353E-07, -0.4158588, 0.415858775378116 , -1.678952E-06, 0.584561, 0.584561049940613, -1.820729E-06, 2.514431, 2.51443099975652
1.13999997451901, -8.715338E-07, -0.4032221, 0.403222113848674 , -1.714921E-06, 0.6318315, 0.631831526758614, -1.798418E-06, 2.363524, 2.36352396011421
1.15999997407198, -9.06542E-07, -0.3897046, 0.389704614878755 , -1.750412E-06, 0.6758734, 0.675873398783089, -1.774555E-06, 2.202094, 2.20209360122752
1.17999997362494, -9.422499E-07, -0.3753747, 0.375374734402885 , -1.785397E-06, 0.7164926, 0.716492593290646, -1.749248E-06, 2.03096, 2.03095984458999
1.19999997317791, -9.786469E-07, -0.3603045, 0.360304474831957 , -1.81985E-06, 0.7535124, 0.753512382509522, -1.72264E-06, 1.850989, 1.85098946094593
1.21999997273088, -1.015722E-06, -0.344569, 0.344568997623033 , -1.853747E-06, 0.7867739, 0.786773920061388, -1.69486E-06, 1.663077, 1.66307687759486
1.23999997228384, -1.053463E-06, -0.3282463, 0.328246265651486 , -1.887067E-06, 0.8161368, 0.816136777403152, -1.666029E-06, 1.468143, 1.46814286708926
1.25999997183681, -1.091859E-06, -0.3114167, 0.311416655780799 , -1.919794E-06, 0.84148, 0.841480016710564, -1.636312E-06, 1.267162, 1.26716196537123
1.27999997138977, -1.130897E-06, -0.2941626, 0.294162601234703 , -1.951911E-06, 0.8627023, 0.86270225048286, -1.605849E-06, 1.061112, 1.06111168861511
1.29999997094274, -1.170565E-06, -0.2765682, 0.27656817436466 , -1.983406E-06, 0.8797221, 0.879722118379921, -1.57479E-06, 0.8509934, 0.850993394853142
1.3199999704957, -1.210851E-06, -0.2587186, 0.258718609812709 , -2.014272E-06, 0.8924787, 0.892478704454788, -1.543253E-06, 0.6378293, 0.637829303743322
1.33999997004867, -1.251741E-06, -0.2407, 0.240699961784757 , -2.0445E-06, 0.9009316, 0.900931596758301, -1.511444E-06, 0.4226446, 0.422644615176042
1.35999996960163, -1.293223E-06, -0.2225987, 0.222598731521548 , -2.07409E-06, 0.9050611, 0.905061125757687, -1.479498E-06, 0.2064764, 0.206476449971731
1.3799999691546, -1.335284E-06, -0.2045013, 0.204501345758029 , -2.103041E-06, 0.9048682, 0.904868245127261, -1.447529E-06, -0.009644032, 0.00964403163329225
1.39999996870756, -1.377911E-06, -0.1864938, 0.186493843798959 , -2.131356E-06, 0.9003744, 0.900374412539144, -1.415742E-06, -0.2246916, 0.22469162941425
1.41999996826053, -1.421091E-06, -0.1686614, 0.168661415582922 , -2.159041E-06, 0.8916214, 0.891621351244679, -1.38424E-06, -0.4376531, 0.437653064729972
1.43999996781349, -1.464814E-06, -0.151088, 0.151087984449812 , -2.186105E-06, 0.8786709, 0.878670930865146, -1.353226E-06, -0.647521, 0.647521018983348
1.45999996736646, -1.509065E-06, -0.1338559, 0.133855894216461 , -2.212561E-06, 0.8616047, 0.861604690554599, -1.322792E-06, -0.853312, 0.853312015534473
1.47999996691942, -1.553833E-06, -0.1170454, 0.117045424888911 , -2.238424E-06, 0.8405235, 0.840523540976644, -1.293131E-06, -1.054057, 1.05405747890552
1.49999996647239, -1.599107E-06, -0.1007345, 0.100734494639215 , -2.26371E-06, 0.8155466, 0.815546631816191, -1.264311E-06, -1.248845, 1.24884545803134
1.51999996602535, -1.644876E-06, -0.08499827, 0.0849982723752869 , -2.28844E-06, 0.7868111, 0.786811113360872, -1.236515E-06, -1.436776, 1.4367759227758
1.53999996557832, -1.691129E-06, -0.06990884, 0.0699088424648745 , -2.312638E-06, 0.7544715, 0.754471540454594, -1.209878E-06, -1.616979, 1.61697864532516
1.55999996513128, -1.737856E-06, -0.05553487, 0.0555348657343504 , -2.336328E-06, 0.7186989, 0.718698918823225, -1.184503E-06, -1.788631, 1.78863108158151
1.57999996468425, -1.785046E-06, -0.04194128, 0.0419412777207675 , -2.359538E-06, 0.6796795, 0.679679512981696, -1.160493E-06, -1.95097, 1.95097029209171
1.59999996423721, -1.832692E-06, -0.02918899, 0.0291889943757816 , -2.382297E-06, 0.6376143, 0.637614250187556, -1.137994E-06, -2.103263, 2.10326313972504
1.61999996379018, -1.880785E-06, -0.01733464, 0.0173346364028336 , -2.404639E-06, 0.5927176, 0.592717647557368, -1.117064E-06, -2.24483, 2.24483013153104
1.63999996334314, -1.929317E-06, -0.0064303, 0.00643030024205783 , -2.426595E-06, 0.5452166, 0.54521656036917, -1.097828E-06, -2.375054, 2.37505435943629
1.65999996289611, -1.978281E-06, 0.003476691, 0.00347669199513055 , -2.448202E-06, 0.4953493, 0.495349287992805, -1.080332E-06, -2.493364, 2.49336361885094
1.67999996244907, -2.027671E-06, 0.01234397, 0.0123439730879082 , -2.469495E-06, 0.4433641, 0.443364083773815, -1.064654E-06, -2.59926, 2.59926033020041
1.69999996200204, -2.077481E-06, 0.02013434, 0.0201343429415317 , -2.490513E-06, 0.3895182, 0.389518201359128, -1.05091E-06, -2.692294, 2.69229412078878
1.719999961555, -2.127707E-06, 0.02681587, 0.0268158727238292 , -2.511295E-06, 0.3340765, 0.334076523790262, -1.039098E-06, -2.772084, 2.77208399772664
1.73999996110797, -2.178345E-06, 0.03236208, 0.0323620774585011 , -2.531881E-06, 0.2773102, 0.277310162794227, -1.029298E-06, -2.838318, 2.83831810951252
1.75999996066093, -2.229391E-06, 0.03675198, 0.0367519818922544 , -2.552312E-06, 0.2194953, 0.21949528159195, -1.021556E-06, -2.890744, 2.89074420928973
1.7799999602139, -2.280844E-06, 0.03997022, 0.0399702154750707 , -2.57263E-06, 0.1609117, 0.160911709090771, -1.015871E-06, -2.929179, 2.92917871475237
1.79999995976686, -2.332701E-06, 0.04200705, 0.0420070477477694 , -2.592875E-06, 0.1018417, 0.101841673287974, -1.012279E-06, -2.953502, 2.95350193977373
1.81999995931983, -2.384963E-06, 0.04285841, 0.0428584144182988 , -2.613091E-06, 0.04256828, 0.0425682813731188, -1.010767E-06, -2.96367, 2.96366977691668
1.8399999588728, -2.43763E-06, 0.0425259, 0.0425259024603438 , -2.633318E-06, -0.01662567, 0.0166256727873555, -1.011369E-06, -2.959698, 2.95969772338884
1.85999995842576, -2.490701E-06, 0.04101672, 0.0410167203109705 , -2.653599E-06, -0.07545917, 0.0754591674079177, -1.01403E-06, -2.941675, 2.94167470932024
1.87999995797873, -2.544181E-06, 0.03834363, 0.038343634540802 , -2.673973E-06, -0.1336542, 0.133654207017944, -1.018736E-06, -2.909752, 2.9097521305086
1.89999995753169, -2.598071E-06, 0.03452489, 0.0345248916232621 , -2.694483E-06, -0.1909372, 0.19093716146463, -1.025489E-06, -2.864148, 2.86414790153522
1.91999995708466, -2.652374E-06, 0.02958409, 0.029584091275621 , -2.715168E-06, -0.24704, 0.247040003553053, -1.034232E-06, -2.805142, 2.80514216423054
1.93999995663762, -2.707095E-06, 0.02355006, 0.0235500579393141 , -2.736065E-06, -0.3017017, 0.301701664937028, -1.044884E-06, -2.733083, 2.73308324813863
1.95999995619059, -2.76224E-06, 0.01645668, 0.0164566768788869 , -2.757213E-06, -0.3546691, 0.354669094096411, -1.057401E-06, -2.648371, 2.6483714580538
1.97999995574355, -2.817812E-06, 0.008342705, 0.00834270521156516 , -2.778648E-06, -0.4056986, 0.405698597440698, -1.071714E-06, -2.551475, 2.55147528648399
1.99999995529652, -2.87382E-06, -0.0007484294, 0.000748434964842063 , -2.800403E-06, -0.4545567, 0.454556703576131, -1.087756E-06, -2.442905, 2.44290542602563
2.01999995484948, -2.930271E-06, -0.01076886, 0.0107688600458865 , -2.822512E-06, -0.5010215, 0.501021504410111, -1.105457E-06, -2.32324, 2.32324004173305
2.03999995440245, -2.987171E-06, -0.02166653, 0.0216665270003547 , -2.845006E-06, -0.5448834, 0.544883370406902, -1.124704E-06, -2.193093, 2.19309329986601
2.05999995395541, -3.044529E-06, -0.03338545, 0.0333854482966076 , -2.867914E-06, -0.5859463, 0.585946321494445, -1.145406E-06, -2.053148, 2.0531475543979
2.07999995350838, -3.102354E-06, -0.04586601, 0.045866012678163 , -2.891263E-06, -0.6240283, 0.62402832508757, -1.167439E-06, -1.9041, 1.9041001796726
2.09999995306134, -3.160656E-06, -0.05904526, 0.0590452627193481 , -2.915077E-06, -0.6589625, 0.658962488180886, -1.19071E-06, -1.746708, 1.74670815467875
2.11999995261431, -3.219443E-06, -0.07285722, 0.072857216071688 , -2.939379E-06, -0.6905978, 0.690597772604522, -1.215096E-06, -1.581764, 1.58176422119187
2.13999995216727, -3.278727E-06, -0.08723321, 0.087233208181486 , -2.964189E-06, -0.7187995, 0.718799471861275, -1.240483E-06, -1.410085, 1.41008496284539
2.15999995172024, -3.338518E-06, -0.1021022, 0.102102205211861 , -2.989524E-06, -0.7434498, 0.743449807173064, -1.266744E-06, -1.232517, 1.23251676559513
2.1799999512732, -3.398826E-06, -0.1173912, 0.117391169120401 , -3.015398E-06, -0.7644484, 0.764448404318081, -1.293733E-06, -1.04993, 1.04992985725483
2.19999995082617, -3.459662E-06, -0.1330254, 0.133025422737288 , -3.041825E-06, -0.7817129, 0.781712889677244, -1.321348E-06, -0.8632243, 0.863224267960606
2.21999995037913, -3.521038E-06, -0.148929, 0.148928999942441 , -3.068814E-06, -0.7951789, 0.795178890234193, -1.349429E-06, -0.6733, 0.673300027848642
2.2399999499321, -3.582966E-06, -0.165025, 0.16502501074389 , -3.096371E-06, -0.8048004, 0.804800391203161, -1.377839E-06, -0.481075, 0.481075048448628
2.25999994948506, -3.645456E-06, -0.181236, 0.181236013806767 , -3.1245E-06, -0.8105501, 0.81055009365684, -1.406454E-06, -0.2874851, 0.287485122684104
2.27999994903803, -3.70852E-06, -0.1974844, 0.197484388982308 , -3.153203E-06, -0.8124189, 0.812418937689225, -1.43516E-06, -0.0934422, 0.0934422016254011
2.29999994859099, -3.77217E-06, -0.2136927, 0.213692724738036 , -3.182479E-06, -0.8104165, 0.81041646004348, -1.463786E-06, 0.1001239, 0.100123882304401
2.31999994814396, -3.836416E-06, -0.2297841, 0.229784131082136 , -3.212322E-06, -0.8045707, 0.804570674902653, -1.492174E-06, 0.2922893, 0.292289257053369
2.33999994769692, -3.901271E-06, -0.2456827, 0.245682686598281 , -3.242727E-06, -0.7949276, 0.794927597052512, -1.520266E-06, 0.4821539, 0.482153892519487
2.35999994724989, -3.966744E-06, -0.2613137, 0.261313706666536 , -3.273685E-06, -0.7815511, 0.781551122672261, -1.547869E-06, 0.6688237, 0.668823719026449
2.37999994680285, -4.032848E-06, -0.2766041, 0.276604145794704 , -3.305182E-06, -0.7645226, 0.764522552497379, -1.574858E-06, 0.8514285, 0.851428508760001
2.39999994635582, -4.099592E-06, -0.291483, 0.291482955246191 , -3.337204E-06, -0.7439404, 0.74394035340104, -1.60112E-06, 1.02911, 1.02910995483523
2.41999994590878, -4.166987E-06, -0.3058814, 0.305881351260912 , -3.369736E-06, -0.7199191, 0.719919145115156, -1.626563E-06, 1.20106, 1.20106041431537
2.43999994546175, -4.235042E-06, -0.3197331, 0.319733142880831 , -3.402756E-06, -0.6925895, 0.692589461811795, -1.651006E-06, 1.366484, 1.36648416519265
2.45999994501472, -4.303767E-06, -0.3329751, 0.332975089577832 , -3.436244E-06, -0.6620971, 0.662097096452093, -1.674402E-06, 1.524618, 1.52461826801392
2.47999994456768, -4.373171E-06, -0.3455471, 0.345547139672296 , -3.470176E-06, -0.628602, 0.628602027902645, -1.696594E-06, 1.674753, 1.67475342750635
2.49999994412065, -4.443261E-06, -0.3573927, 0.357392698554003 , -3.504526E-06, -0.5922776, 0.592277646075126, -1.717501E-06, 1.816219, 1.81621909141622
2.51999994367361, -4.514047E-06, -0.3684589, 0.368458896903033 , -3.539267E-06, -0.55331, 0.55331003667056, -1.737044E-06, 1.94838, 1.94838047027665
2.53999994322658, -4.585534E-06, -0.3786968, 0.378696829108344 , -3.574369E-06, -0.5118973, 0.511897265923581, -1.755109E-06, 2.070639, 2.07063865661695
2.55999994277954, -4.65773E-06, -0.3880618, 0.388061791686354 , -3.609802E-06, -0.4682477, 0.468247711672392, -1.771639E-06, 2.182478, 2.18247771263194
2.57999994233251, -4.730641E-06, -0.3965134, 0.396513372687903 , -3.645533E-06, -0.4225795, 0.42257952691697, -1.786566E-06, 2.283409, 2.28340935707162
2.59999994188547, -4.804271E-06, -0.4040157, 0.404015749721481 , -3.681529E-06, -0.3751194, 0.375119447726196, -1.799822E-06, 2.373004, 2.37300395965644
