time, position, , , velocity, , ,acceleration, , 
, x, y, s, x, y, s, x, y, s, 
0.0199999995529652, 0, 0, 0 , 0, 0, 0, 0, 0, 0
0.0399999991059303, -2.303065E-08, 0.1004551, 0.100455060601237 , -1.220297E-08, -0.09724762, 0.0972476154565819, -6.101486E-07, -4.862381, 4.86238098144535
0.0599999986588955, -2.371299E-08, 0.09740131, 0.0974013060331373 , -3.38938E-08, -0.1536886, 0.15368859469891, -1.084541E-06, -2.822049, 2.82204914093038
0.0799999982118607, -2.481187E-08, 0.09324715, 0.0932471528649363 , -5.476617E-08, -0.2085084, 0.208508446812637, -1.043619E-06, -2.740993, 2.74099278450032
0.0999999977648258, -2.63335E-08, 0.08803396, 0.0880339592695276 , -7.593877E-08, -0.2613002, 0.261300235986721, -1.05863E-06, -2.63959, 2.63958954811117
0.119999997317791, -2.828516E-08, 0.0818107, 0.0818106979131747 , -9.74691E-08, -0.3116755, 0.311675459146515, -1.076517E-06, -2.518761, 2.51876115798973
0.139999996870756, -3.067521E-08, 0.07463356, 0.07463356107474 , -1.194113E-07, -0.3592667, 0.359266668558141, -1.097112E-06, -2.37956, 2.37956047058131
0.159999996423721, -3.351299E-08, 0.0665655, 0.0665654987096871 , -1.418161E-07, -0.4037308, 0.403730839490915, -1.120239E-06, -2.223209, 2.22320866584806
0.179999995976686, -3.680877E-08, 0.05767572, 0.0576757229864715 , -1.647303E-07, -0.444751, 0.444750994443924, -1.145708E-06, -2.051008, 2.05100774765047
0.199999995529652, -4.057363E-08, 0.04803913, 0.0480391308665447 , -1.881963E-07, -0.4820393, 0.482039272785224, -1.173301E-06, -1.864414, 1.86441397666968
0.219999995082617, -4.481942E-08, 0.03773572, 0.0377357192337779 , -2.122522E-07, -0.5153384, 0.515338420867964, -1.202795E-06, -1.664957, 1.66495740413709
0.239999994635582, -4.955864E-08, 0.02684993, 0.0268499348313074 , -2.369312E-07, -0.5444236, 0.544423580169729, -1.233949E-06, -1.454258, 1.45425796508841
0.259999994188547, -5.480435E-08, 0.01547, 0.0154699981213587 , -2.622615E-07, -0.5691041, 0.569104135036529, -1.266513E-06, -1.234028, 1.23402774334019
0.279999993741512, -6.057005E-08, 0.003687227, 0.00368722691250423 , -2.88266E-07, -0.5892244, 0.589224398136209, -1.300226E-06, -1.006013, 1.00601315498436
0.299999993294477, -6.68696E-08, -0.008404704, 0.00840470381107706 , -3.149623E-07, -0.6046654, 0.604665398597799, -1.334817E-06, -0.77205, 0.772050023080072
0.319999992847443, -7.37171E-08, -0.0207105, 0.0207104999573351 , -3.423628E-07, -0.6153443, 0.615344345569706, -1.370023E-06, -0.5339473, 0.533947348596423
0.339999992400408, -8.112678E-08, -0.03313395, 0.0331339538098375 , -3.70474E-07, -0.6212161, 0.62121605873119, -1.40556E-06, -0.2935857, 0.29358565807679
0.359999991953373, -8.911288E-08, -0.0455787, 0.0455786995590604 , -3.992972E-07, -0.6222724, 0.622272431850561, -1.44116E-06, -0.05281866, 0.0528186559873735
0.379999991506338, -9.768957E-08, -0.05794899, 0.0579489879310955 , -4.288281E-07, -0.6185424, 0.618542373180538, -1.476543E-06, 0.1865029, 0.186502933508042
0.399999991059303, -1.068708E-07, -0.07015037, 0.0701503679157117 , -4.590569E-07, -0.6100914, 0.610091388225728, -1.511444E-06, 0.4225492, 0.422549247744402
0.419999990612268, -1.166703E-07, -0.08209042, 0.0820904150606031 , -4.899689E-07, -0.5970207, 0.597020685672961, -1.545598E-06, 0.6535351, 0.653535127641598
0.439999990165234, -1.271012E-07, -0.09367944, 0.0936794430018334 , -5.215438E-07, -0.579466, 0.579465985298391, -1.578746E-06, 0.877735, 0.877735018731583
0.459999989718199, -1.381764E-07, -0.1048311, 0.104831129312606 , -5.537566E-07, -0.5575967, 0.557596683502472, -1.610641E-06, 1.093465, 1.09346508979916
0.479999989271164, -1.49908E-07, -0.1154632, 0.115463212132551 , -5.865776E-07, -0.5316138, 0.531613826752033, -1.64105E-06, 1.299143, 1.29914283752545
0.499999988824129, -1.623075E-07, -0.125498, 0.125498026609526 , -6.199728E-07, -0.5017484, 0.501748442650224, -1.669758E-06, 1.493269, 1.49326920509432
0.519999988377094, -1.753856E-07, -0.1348631, 0.134863093495483 , -6.539036E-07, -0.4682598, 0.468259781599501, -1.69654E-06, 1.674433, 1.67443311214533
0.539999987930059, -1.891522E-07, -0.1434916, 0.143491640687114 , -6.88328E-07, -0.4314327, 0.431432723999573, -1.721219E-06, 1.841353, 1.84135293960652
0.559999987483025, -2.036162E-07, -0.1513231, 0.151323065161842 , -7.232003E-07, -0.3915757, 0.391575664282513, -1.743615E-06, 1.992853, 1.99285304546432
0.57999998703599, -2.187857E-07, -0.1583034, 0.158303365111502 , -7.584719E-07, -0.349018, 0.349017977715363, -1.763581E-06, 2.127884, 2.1278843879707
0.599999986588955, -2.346675E-07, -0.1643855, 0.164385467767883 , -7.940915E-07, -0.3041071, 0.304107129574859, -1.780981E-06, 2.245543, 2.24554252624582
0.61999998614192, -2.512676E-07, -0.1695296, 0.169529557228275 , -8.300054E-07, -0.2572061, 0.257206141950039, -1.795692E-06, 2.345049, 2.34504938125679
0.639999985694885, -2.685908E-07, -0.1737033, 0.173703312874048 , -8.66158E-07, -0.2086903, 0.208690315486798, -1.807629E-06, 2.425791, 2.425791263581
0.65999998524785, -2.866406E-07, -0.1768822, 0.176882162690395 , -9.024923E-07, -0.1589447, 0.158944696190535, -1.816719E-06, 2.487281, 2.48728108406133
0.679999984800816, -3.054196E-07, -0.1790493, 0.179049342870973 , -9.389507E-07, -0.1083605, 0.10836051404883, -1.82292E-06, 2.529209, 2.52920913696355
0.699999984353781, -3.249291E-07, -0.180196, 0.180195972323711 , -9.754747E-07, -0.05733268, 0.0573326796376244, -1.826197E-06, 2.551392, 2.55139183998173
0.719999983906746, -3.451692E-07, -0.1803211, 0.18032106757197 , -1.012006E-06, -0.006256491, 0.00625649102766351, -1.826561E-06, 2.553809, 2.55380940437382
0.739999983459711, -3.66139E-07, -0.1794315, 0.179431527853386 , -1.048486E-06, 0.04447559, 0.044475585234603, -1.824026E-06, 2.536604, 2.53660392761296
0.759999983012676, -3.878361E-07, -0.177542, 0.177541971207089 , -1.084859E-06, 0.0944766, 0.0944765955272018, -1.818609E-06, 2.500051, 2.50005054473943
0.779999982565641, -4.102575E-07, -0.1746746, 0.174674570560937 , -1.121067E-06, 0.1433683, 0.14336830378017, -1.810406E-06, 2.444586, 2.44458556175299
0.799999982118607, -4.333986E-07, -0.1708589, 0.17085887491758 , -1.157056E-06, 0.1907837, 0.190783694389991, -1.799486E-06, 2.37077, 2.3707695007331
0.819999981671572, -4.572541E-07, -0.1661315, 0.166131451726589 , -1.192776E-06, 0.2363701, 0.236370116475254, -1.785975E-06, 2.279321, 2.27932119369577
0.839999981224537, -4.818176E-07, -0.1605356, 0.160535618663557 , -1.228175E-06, 0.2797917, 0.279791653158976, -1.769968E-06, 2.171077, 2.17107677459789
0.859999980777502, -5.070818E-07, -0.154121, 0.154120996595263 , -1.263208E-06, 0.3207314, 0.320731371643647, -1.751624E-06, 2.046986, 2.04698586464003
0.879999980330467, -5.330384E-07, -0.1469431, 0.146943107248319 , -1.297829E-06, 0.3588941, 0.358894139530621, -1.731081E-06, 1.908138, 1.90813839435656
0.899999979883432, -5.596784E-07, -0.1390629, 0.139062941075498 , -1.332E-06, 0.3940082, 0.394008159639703, -1.708554E-06, 1.755701, 1.75570106506431
0.919999979436398, -5.86992E-07, -0.1305464, 0.130546391011604 , -1.365684E-06, 0.4258272, 0.425827234985634, -1.684185E-06, 1.590954, 1.59095382690519
0.939999978989363, -6.14969E-07, -0.1214637, 0.121463730932839 , -1.398849E-06, 0.4541322, 0.454132199289569, -1.658219E-06, 1.415248, 1.41524827480413
0.959999978542328, -6.435983E-07, -0.1118891, 0.111889064313832 , -1.431465E-06, 0.4787329, 0.478732883932346, -1.630821E-06, 1.230034, 1.23003423214067
0.979999978095293, -6.728685E-07, -0.1018997, 0.101899683477716 , -1.46351E-06, 0.4994688, 0.499468803407906, -1.602263E-06, 1.036796, 1.03679597377901
0.999999977648258, -7.027678E-07, -0.09157546, 0.0915754586485172 , -1.494965E-06, 0.5162106, 0.516210556032438, -1.572732E-06, 0.8370876, 0.837087631227063
1.01999997720122, -7.332841E-07, -0.08099825, 0.0809982493552975 , -1.525814E-06, 0.5288599, 0.528859913351353, -1.54248E-06, 0.6324679, 0.63246786594579
1.03999997675419, -7.644051E-07, -0.0702512, 0.0702512040775879 , -1.556049E-06, 0.5373515, 0.537351489069331, -1.511745E-06, 0.4245788, 0.424578785898993
1.05999997630715, -7.961183E-07, -0.05941816, 0.0594181641989636 , -1.585664E-06, 0.5416518, 0.541651844980653, -1.480754E-06, 0.2150178, 0.215017795567843
1.07999997586012, -8.284115E-07, -0.04858296, 0.0485829562019404 , -1.61466E-06, 0.5417602, 0.54176020622494, -1.449763E-06, 0.005418062, 0.00541806240404651
1.09999997541308, -8.612723E-07, -0.0378288, 0.0378287993469532 , -1.64304E-06, 0.5377079, 0.5377078652407, -1.419011E-06, -0.202617, 0.202617049222193
1.11999997496605, -8.946886E-07, -0.02723764, 0.0272376407084779 , -1.670814E-06, 0.5295579, 0.529557943346752, -1.388719E-06, -0.4074961, 0.407496094706041
1.13999997451901, -9.286485E-07, -0.01688955, 0.0168895535426334 , -1.697997E-06, 0.5174044, 0.517404437067911, -1.35912E-06, -0.6076753, 0.607675313951105
1.15999997407198, -9.631406E-07, -0.006862123, 0.0068621226330992 , -1.724606E-06, 0.5013716, 0.501371562483893, -1.330449E-06, -0.8016437, 0.801643729211004
1.17999997362494, -9.981538E-07, 0.002770119, 0.00277011952651005 , -1.750663E-06, 0.4816121, 0.481612086299263, -1.30288E-06, -0.9879738, 0.987973809243108
1.19999997317791, -1.033678E-06, 0.01193624, 0.0119362445995759 , -1.776197E-06, 0.4583063, 0.458306252959832, -1.276675E-06, -1.165292, 1.16529166698526
1.21999997273088, -1.069703E-06, 0.02056945, 0.020569451181093 , -1.801236E-06, 0.4316604, 0.431660383943501, -1.251982E-06, -1.332294, 1.3322935104376
1.23999997228384, -1.106219E-06, 0.02860754, 0.0286075435792704 , -1.825816E-06, 0.4019046, 0.401904612783765, -1.228989E-06, -1.487789, 1.48778855800679
1.25999997183681, -1.143218E-06, 0.03599337, 0.0359933711769937 , -1.849973E-06, 0.3692913, 0.369291335348948, -1.20786E-06, -1.630664, 1.63066387176558
1.27999997138977, -1.180693E-06, 0.04267523, 0.0426752269431367 , -1.873748E-06, 0.3340929, 0.334092885261068, -1.188755E-06, -1.759923, 1.75992250442545
1.29999997094274, -1.218637E-06, 0.04860722, 0.0486072153005775 , -1.897184E-06, 0.2965995, 0.296599507337916, -1.171787E-06, -1.874669, 1.87466895580328
1.3199999704957, -1.257043E-06, 0.05374955, 0.0537495464233525 , -1.920326E-06, 0.2571166, 0.257116556174774, -1.157088E-06, -1.974148, 1.97414755821262
1.33999997004867, -1.295908E-06, 0.0580688, 0.0580687970067622 , -1.94322E-06, 0.2159626, 0.215962603696983, -1.144713E-06, -2.057698, 2.05769777298005
1.35999996960163, -1.335226E-06, 0.06153813, 0.0615381263341324 , -1.965916E-06, 0.1734664, 0.173466444026643, -1.134799E-06, -2.124808, 2.12480807304413
1.3799999691546, -1.374995E-06, 0.06413741, 0.0641374141125247 , -1.988464E-06, 0.1299646, 0.129964575186682, -1.127376E-06, -2.175093, 2.17509341239958
1.39999996870756, -1.415214E-06, 0.06585339, 0.0658533945831732 , -2.010913E-06, 0.08579884, 0.0857988447186567, -1.122464E-06, -2.208287, 2.20828652381926
1.41999996826053, -1.45588E-06, 0.06667966, 0.0666796639720591 , -2.033315E-06, 0.04131338, 0.0413133800530122, -1.1201E-06, -2.224273, 2.22427320480375
1.43999996781349, -1.496995E-06, 0.06661671, 0.0666167065669414 , -2.055721E-06, -0.003147691, 0.00314769215954952, -1.120281E-06, -2.223054, 2.22305369377164
1.45999996736646, -1.538558E-06, 0.06567185, 0.0656718462885839 , -2.07818E-06, -0.04724319, 0.0472431928376473, -1.122987E-06, -2.204775, 2.20477509498625
1.47999996691942, -1.580573E-06, 0.0638591, 0.0638590976791482 , -2.100744E-06, -0.09063737, 0.0906373709683681, -1.12816E-06, -2.169709, 2.16970896720916
1.49999996647239, -1.623042E-06, 0.06119905, 0.0611990504182029 , -2.123459E-06, -0.1330024, 0.133002430217528, -1.135777E-06, -2.118253, 2.11825299263031
1.51999996602535, -1.66597E-06, 0.05771863, 0.0577186309041604 , -2.146374E-06, -0.174021, 0.174020975841407, -1.145736E-06, -2.050927, 2.05092740058931
1.53999996557832, -1.70936E-06, 0.05345086, 0.0534508638357262 , -2.169533E-06, -0.2133884, 0.213388353597226, -1.157946E-06, -1.968369, 1.96836888790165
1.55999996513128, -1.75322E-06, 0.04843456, 0.04843456301286 , -2.192978E-06, -0.250815, 0.250815033922246, -1.172282E-06, -1.871334, 1.8713340759281
1.57999996468425, -1.797555E-06, 0.04271399, 0.0427139923354731 , -2.216751E-06, -0.2860285, 0.286028474577911, -1.188653E-06, -1.760672, 1.76067209243815
1.59999996423721, -1.842373E-06, 0.03633849, 0.0363384858240825 , -2.240889E-06, -0.3187752, 0.318775236614474, -1.206877E-06, -1.637338, 1.63733816146895
1.61999996379018, -1.887681E-06, 0.02936203, 0.0293620266627092 , -2.265426E-06, -0.348823, 0.34882295132419, -1.22684E-06, -1.502386, 1.50238573551228
1.63999996334314, -1.933489E-06, 0.0218428, 0.0218427964410606 , -2.290393E-06, -0.3759616, 0.375961571938816, -1.248338E-06, -1.356931, 1.35693109035549
1.65999996289611, -1.979805E-06, 0.0138427, 0.0138426955342458 , -2.315817E-06, -0.400005, 0.400005042559652, -1.271235E-06, -1.202174, 1.20217359066077
1.67999996244907, -2.02664E-06, 0.005426847, 0.0054268477543506 , -2.341723E-06, -0.4207924, 0.420792430645783, -1.295302E-06, -1.039369, 1.0393694639214
1.69999996200204, -2.074002E-06, -0.003336937, 0.00333693781127643 , -2.368131E-06, -0.4381892, 0.438189238316259, -1.32037E-06, -0.8698404, 0.869840383530665
1.719999961555, -2.121903E-06, -0.01237869, 0.0123786937401396 , -2.395055E-06, -0.4520878, 0.452087819582608, -1.346211E-06, -0.6949291, 0.694929063321464
1.73999996110797, -2.170354E-06, -0.02162686, 0.0216268618748831 , -2.422508E-06, -0.4624084, 0.462408423430113, -1.372678E-06, -0.5160302, 0.516030192377009
1.75999996066093, -2.219364E-06, -0.03100885, 0.0310088471372415 , -2.450499E-06, -0.4690992, 0.46909922362014, -1.399508E-06, -0.33454, 0.334540009501524
1.7799999602139, -2.268944E-06, -0.04045158, 0.0404515825848331 , -2.479029E-06, -0.4721368, 0.472136795527291, -1.426531E-06, -0.1518786, 0.151878595358872
1.79999995976686, -2.319106E-06, -0.0498821, 0.0498820990863117 , -2.508099E-06, -0.4715258, 0.47152578831386, -1.453486E-06, 0.03055036, 0.0305503607142025
1.81999995931983, -2.36986E-06, -0.05922808, 0.0592280775782729 , -2.537703E-06, -0.467299, 0.467298984534478, -1.480203E-06, 0.2113402, 0.211340188985286
1.8399999588728, -2.421217E-06, -0.06841841, 0.0684184059929109 , -2.567833E-06, -0.4595166, 0.459516555078052, -1.50651E-06, 0.3891215, 0.389121472838457
1.85999995842576, -2.473186E-06, -0.07738371, 0.0773837119736112 , -2.598476E-06, -0.4482655, 0.448265463121316, -1.532158E-06, 0.5625546, 0.562554597856701
1.87999995797873, -2.525779E-06, -0.08605689, 0.086056888140551 , -2.629615E-06, -0.4336589, 0.433658927687035, -1.556941E-06, 0.7303268, 0.730326771737805
1.89999995753169, -2.579003E-06, -0.09437358, 0.0943735838288791 , -2.66123E-06, -0.4158348, 0.415834754713945, -1.580736E-06, 0.8912086, 0.891208648683043
1.91999995708466, -2.632869E-06, -0.1022727, 0.102272667024647 , -2.693296E-06, -0.3949545, 0.394954532394056, -1.603325E-06, 1.044011, 1.04401111602906
1.93999995663762, -2.687385E-06, -0.1096967, 0.109696701201932 , -2.725788E-06, -0.371202, 0.37120199204492, -1.624562E-06, 1.187627, 1.18762707710377
1.95999995619059, -2.742558E-06, -0.1165923, 0.116592325302432 , -2.758673E-06, -0.3447817, 0.344781696807454, -1.644264E-06, 1.321015, 1.32101476192577
1.97999995574355, -2.798397E-06, -0.1229107, 0.122910656066803 , -2.79192E-06, -0.3159169, 0.315916895878731, -1.662363E-06, 1.44324, 1.44324004650212
1.99999995529652, -2.854907E-06, -0.1286076, 0.128607615860202 , -2.825493E-06, -0.2848479, 0.284847944988913, -1.678643E-06, 1.553448, 1.55344760418029
2.01999995484948, -2.912094E-06, -0.1336442, 0.133644223244923 , -2.859354E-06, -0.2518304, 0.25183039905264, -1.693047E-06, 1.650877, 1.6508773565301
2.03999995440245, -2.969963E-06, -0.1379869, 0.137986883553042 , -2.893463E-06, -0.2171327, 0.217132702489105, -1.705473E-06, 1.734885, 1.73488485813225
2.05999995395541, -3.028518E-06, -0.1416076, 0.141607567700346 , -2.92778E-06, -0.1810343, 0.181034266972375, -1.715841E-06, 1.804922, 1.80492186546407
2.07999995350838, -3.087764E-06, -0.144484, 0.144484028253171 , -2.962262E-06, -0.1438229, 0.143822878629673, -1.724061E-06, 1.860569, 1.8605694770821
2.09999995306134, -3.147701E-06, -0.1465999, 0.146599888835367 , -2.996864E-06, -0.1057929, 0.105792880100736, -1.730132E-06, 1.9015, 1.90149998664935
2.11999995261431, -3.208332E-06, -0.1479447, 0.14794474843643 , -3.031543E-06, -0.06724261, 0.0672426075426636, -1.733952E-06, 1.927514, 1.92751371860582
2.13999995216727, -3.269657E-06, -0.1485142, 0.148514196312657 , -3.066255E-06, -0.02847211, 0.0284721107941893, -1.735589E-06, 1.938525, 1.93852484226305
2.15999995172024, -3.331676E-06, -0.1483098, 0.148309797085991 , -3.100955E-06, 0.01021937, 0.0102193658288281, -1.734998E-06, 1.934574, 1.93457388877946
2.1799999512732, -3.394388E-06, -0.1473391, 0.147339075842857 , -3.1356E-06, 0.04853533, 0.048535332184989, -1.732235E-06, 1.915798, 1.91579842567522
2.19999995082617, -3.457791E-06, -0.1456154, 0.145615384023713 , -3.170146E-06, 0.08618435, 0.0861843526946415, -1.727301E-06, 1.882451, 1.88245105743487
2.21999995037913, -3.521882E-06, -0.1431577, 0.143157735510279 , -3.204551E-06, 0.1228825, 0.122882530134977, -1.720264E-06, 1.834909, 1.83490896225056
2.2399999499321, -3.586657E-06, -0.1399906, 0.139990627811602 , -3.238775E-06, 0.1583554, 0.158355385098199, -1.711214E-06, 1.773643, 1.77364277839743
2.25999994948506, -3.652113E-06, -0.1361438, 0.136143833447804 , -3.272779E-06, 0.1923399, 0.192339926985928, -1.700198E-06, 1.699227, 1.69922709465112
2.27999994903803, -3.718244E-06, -0.1316521, 0.131652101926859 , -3.306526E-06, 0.2245867, 0.224586740160487, -1.687351E-06, 1.612341, 1.61234068870633
2.29999994859099, -3.785043E-06, -0.1265549, 0.126554876622535 , -3.339982E-06, 0.2548615, 0.254861503861378, -1.672788E-06, 1.513738, 1.5137382745752
2.31999994814396, -3.852505E-06, -0.1208959, 0.120895929695954 , -3.373114E-06, 0.2829469, 0.282946854849894, -1.656599E-06, 1.404268, 1.40426754951575
2.33999994769692, -3.920623E-06, -0.114723, 0.114723041720626 , -3.405893E-06, 0.308644, 0.30864402653666, -1.638932E-06, 1.284859, 1.28485858440504
2.35999994724989, -3.989389E-06, -0.1080876, 0.108087562098215 , -3.438292E-06, 0.3317739, 0.331773936766321, -1.619969E-06, 1.156496, 1.15649557113761
2.37999994680285, -4.058795E-06, -0.101044, 0.101043976924875 , -3.470288E-06, 0.3521789, 0.35217887164872, -1.599813E-06, 1.020247, 1.02024674415714
2.39999994635582, -4.128832E-06, -0.09364952, 0.0936495215610861 , -3.501861E-06, 0.3697228, 0.36972284318675, -1.578655E-06, 0.8771986, 0.877198576928606
2.41999994590878, -4.199492E-06, -0.08596364, 0.0859636441898913 , -3.532995E-06, 0.3842933, 0.384293347613362, -1.55668E-06, 0.7285252, 0.728525221349472
2.43999994546175, -4.270766E-06, -0.07804762, 0.0780476183867685 , -3.563676E-06, 0.3958012, 0.395801186577628, -1.534033E-06, 0.5753919, 0.575391948225159
2.45999994501472, -4.342643E-06, -0.06996398, 0.069963984326191 , -3.593894E-06, 0.4041816, 0.404181599632982, -1.510898E-06, 0.4190207, 0.41902065277372
2.47999994456768, -4.415117E-06, -0.0617761, 0.0617761017469763 , -3.623643E-06, 0.4093942, 0.409394204632584, -1.48749E-06, 0.2606302, 0.260630249981357
2.49999994412065, -4.488175E-06, -0.05354764, 0.0535476358625682 , -3.652923E-06, 0.4114234, 0.411423385159497, -1.463968E-06, 0.101459, 0.101459026347232
2.51999994367361, -4.561809E-06, -0.04534208, 0.0453420767992746 , -3.681733E-06, 0.4102779, 0.410277903096506, -1.440503E-06, -0.0572741, 0.0572741031827879
2.53999994322658, -4.636011E-06, -0.03722226, 0.0372222590353302 , -3.710078E-06, 0.4059909, 0.405990928428436, -1.417266E-06, -0.2143487, 0.214348733429826
2.55999994277954, -4.710771E-06, -0.02924987, 0.0292498659410649 , -3.737967E-06, 0.3986196, 0.398619622009637, -1.39446E-06, -0.3685653, 0.368565320971266
2.57999994233251, -4.786079E-06, -0.02148498, 0.0214849827554015 , -3.765412E-06, 0.3882441, 0.388244122285029, -1.372257E-06, -0.518775, 0.518774986268905
