time, position, , , velocity, , ,acceleration, , 
, x, y, s, x, y, s, x, y, s, 
0.0199999995529652, 0, 0, 0 , 0, 0, 0, 0, 0, 0
0.0399999991059303, -2.303093E-08, 0.1004573, 0.100457265973094 , -1.22166E-08, -0.09713727, 0.0971372723579414, -6.108301E-07, -4.856863, 4.85686349868778
0.0599999986588955, -2.373157E-08, 0.09752758, 0.097527578473094 , -3.480935E-08, -0.1474853, 0.147485256195072, -1.129637E-06, -2.517399, 2.51739931106593
0.0799999982118607, -2.486717E-08, 0.09362195, 0.093621946871284 , -5.660166E-08, -0.1960826, 0.196082606911667, -1.089616E-06, -2.429868, 2.42986750602747
0.0999999977648258, -2.64443E-08, 0.08878438, 0.0887843817472497 , -7.871391E-08, -0.2425187, 0.24251872301103, -1.105612E-06, -2.321806, 2.32180595397976
0.119999997317791, -2.847065E-08, 0.08306652, 0.0830665230751086 , -1.012036E-07, -0.2864051, 0.286405086517352, -1.124484E-06, -2.194318, 2.19431829452543
0.139999996870756, -3.095495E-08, 0.07652714, 0.0765271410346094 , -1.241242E-07, -0.3273789, 0.327378869056725, -1.146031E-06, -2.048689, 2.0486891269687
0.159999996423721, -3.390691E-08, 0.06923158, 0.0692315846681678 , -1.475251E-07, -0.365106, 0.365105986595184, -1.170045E-06, -1.886356, 1.88635587692297
0.179999995976686, -3.73371E-08, 0.06125117, 0.0612511672079677 , -1.71451E-07, -0.3992834, 0.399283438921012, -1.196294E-06, -1.708873, 1.70887267589611
0.199999995529652, -4.125687E-08, 0.05266252, 0.0526625216007394 , -1.959415E-07, -0.4296423, 0.429642319679305, -1.224527E-06, -1.517944, 1.51794409751941
0.219999995082617, -4.567824E-08, 0.0435469, 0.0435469038784743 , -2.210313E-07, -0.4559492, 0.455949246883446, -1.254487E-06, -1.315346, 1.3153463602072
0.239999994635582, -5.061382E-08, 0.03398943, 0.0339894257486243 , -2.46749E-07, -0.4780086, 0.478008627891604, -1.285889E-06, -1.102969, 1.10296905040816
0.259999994188547, -5.607667E-08, 0.0240783, 0.0240783020854649 , -2.73118E-07, -0.4956641, 0.495664060115889, -1.318448E-06, -0.8827716, 0.882771611214669
0.279999993741512, -6.208015E-08, 0.01390405, 0.0139040481300548 , -3.001553E-07, -0.5087991, 0.508799076080411, -1.351864E-06, -0.6567508, 0.656750798226794
0.299999993294477, -6.86379E-08, 0.003558672, 0.0035586722667429 , -3.278722E-07, -0.5173379, 0.517337918281659, -1.385845E-06, -0.4269421, 0.426942110063895
0.319999992847443, -7.576362E-08, -0.00686515, 0.00686514982995474 , -3.562737E-07, -0.5212462, 0.521246194839599, -1.420077E-06, -0.1954138, 0.195413827901278
0.339999992400408, -8.347099E-08, -0.01727488, 0.0172748807819714 , -3.85359E-07, -0.5205303, 0.520530343055868, -1.454264E-06, 0.03579259, 0.0357925892171657
0.359999991953373, -9.177357E-08, -0.02757892, 0.0275789164008237 , -4.15121E-07, -0.5152373, 0.515237271785903, -1.4881E-06, 0.2646536, 0.264653563503634
0.379999991506338, -1.006846E-07, -0.03768743, 0.0376874320210371 , -4.455468E-07, -0.5054542, 0.505454242229658, -1.521292E-06, 0.4891515, 0.489151477816086
0.399999991059303, -1.102171E-07, -0.04751312, 0.0475131198765126 , -4.766179E-07, -0.4913068, 0.49130678176903, -1.553556E-06, 0.707373, 0.707373023034848
0.419999990612268, -1.203834E-07, -0.05697192, 0.05697192251695 , -5.083103E-07, -0.472958, 0.472958028316771, -1.584617E-06, 0.9174377, 0.91743767261642
0.439999990165234, -1.311953E-07, -0.06598376, 0.0659837648273819 , -5.405944E-07, -0.4506066, 0.450606584549274, -1.614208E-06, 1.117572, 1.11757218837855
0.459999989718199, -1.426641E-07, -0.07447322, 0.0744732245804246 , -5.734361E-07, -0.4244844, 0.424484431744009, -1.642081E-06, 1.306108, 1.30610764026745
0.479999989271164, -1.548001E-07, -0.08237013, 0.082370132208016 , -6.067962E-07, -0.3948548, 0.394854843616952, -1.668008E-06, 1.481479, 1.48147940635775
0.499999988824129, -1.676128E-07, -0.08961018, 0.0896101817490238 , -6.406319E-07, -0.3620095, 0.362009465694994, -1.691785E-06, 1.642269, 1.64226889610378
0.519999988377094, -1.811107E-07, -0.09613539, 0.0961353853346623 , -6.74896E-07, -0.326266, 0.326265990734798, -1.713204E-06, 1.787174, 1.78717374801718
0.539999987930059, -1.953015E-07, -0.1018946, 0.101894572377392 , -7.095383E-07, -0.2879646, 0.287964642048756, -1.732116E-06, 1.915067, 1.9150674343117
0.559999987483025, -2.101916E-07, -0.1068438, 0.106843799352853 , -7.445057E-07, -0.2474651, 0.247465074063467, -1.74837E-06, 2.024978, 2.02497839927749
0.57999998703599, -2.257865E-07, -0.1109466, 0.110946603119603 , -7.797425E-07, -0.2051433, 0.205143287779383, -1.761842E-06, 2.116089, 2.11608934402539
0.599999986588955, -2.420903E-07, -0.1141743, 0.114174298942346 , -8.151913E-07, -0.1613879, 0.161387920381698, -1.772437E-06, 2.187768, 2.18776845932079
0.61999998614192, -2.591062E-07, -0.1165062, 0.116506189108183 , -8.507932E-07, -0.1165968, 0.116596832874541, -1.780094E-06, 2.239554, 2.23955440521311
0.639999985694885, -2.768359E-07, -0.1179296, 0.117929615080682 , -8.864886E-07, -0.07117356, 0.0711735636051072, -1.78477E-06, 2.271163, 2.27116346359323
0.65999998524785, -2.952803E-07, -0.11844, 0.118440039456259 , -9.222174E-07, -0.0255236, 0.0255236029791546, -1.786441E-06, 2.282498, 2.2824981212623
0.679999984800816, -3.144387E-07, -0.118041, 0.118041016161861 , -9.579201E-07, 0.01994924, 0.0199492424956473, -1.785133E-06, 2.273642, 2.27364230156015
0.699999984353781, -3.343094E-07, -0.1167441, 0.116744063795092 , -9.935375E-07, 0.06484601, 0.0648460090236482, -1.78087E-06, 2.244838, 2.24483847618174
0.719999983906746, -3.548897E-07, -0.1145685, 0.114568501711441 , -1.029012E-06, 0.1087765, 0.108776539569, -1.773731E-06, 2.196527, 2.1965265274055
0.739999983459711, -3.761754E-07, -0.1115412, 0.111541226506868 , -1.064288E-06, 0.1513626, 0.151362642649578, -1.763794E-06, 2.129305, 2.12930512428357
0.759999983012676, -3.981617E-07, -0.1076964, 0.107696384192249 , -1.099311E-06, 0.1922411, 0.192241072657867, -1.751164E-06, 2.043921, 2.04392147064284
0.779999982565641, -4.208423E-07, -0.103075, 0.103075020016099 , -1.134031E-06, 0.231067, 0.231067046525877, -1.735987E-06, 1.941299, 1.9412987232216
0.799999982118607, -4.442103E-07, -0.09772466, 0.0977246612320505 , -1.168399E-06, 0.2675167, 0.267516672613788, -1.718422E-06, 1.822481, 1.8224813938149
0.819999981671572, -4.682577E-07, -0.09169883, 0.0916988328111207 , -1.202372E-06, 0.3012902, 0.301290154459491, -1.698646E-06, 1.688674, 1.68867409229364
0.839999981224537, -4.929759E-07, -0.08505654, 0.0850565433516483 , -1.235909E-06, 0.3321136, 0.332113564016734, -1.676835E-06, 1.54117, 1.54117047786804
0.859999980777502, -5.183553E-07, -0.0778617, 0.0778616964834302 , -1.268973E-06, 0.3597416, 0.359741568567607, -1.653206E-06, 1.3814, 1.38140022754768
0.879999980330467, -5.44386E-07, -0.0701825, 0.0701825022718562 , -1.301533E-06, 0.3839589, 0.383958876135171, -1.627996E-06, 1.210865, 1.21086537838092
0.899999979883432, -5.710572E-07, -0.06209083, 0.0620908290174042 , -1.333562E-06, 0.4045825, 0.404582500459961, -1.601427E-06, 1.031181, 1.03118121624117
0.919999979436398, -5.983579E-07, -0.05366156, 0.0536615625057202 , -1.365036E-06, 0.4214623, 0.421462327244108, -1.573744E-06, 0.8439913, 0.843991339208163
0.939999978989363, -6.262767E-07, -0.04497189, 0.0449718870266176 , -1.395941E-06, 0.4344829, 0.434482872488357, -1.54522E-06, 0.6510273, 0.65102726221268
0.959999978542328, -6.54802E-07, -0.0361006, 0.0361005999207277 , -1.426263E-06, 0.4435633, 0.44356328249207, -1.516094E-06, 0.4540205, 0.454020500185637
0.979999978095293, -6.839219E-07, -0.02712741, 0.0271274112251188 , -1.455995E-06, 0.4486586, 0.448658585550763, -1.486626E-06, 0.2547652, 0.254765152935551
0.999999977648258, -7.136247E-07, -0.01813222, 0.0181322246930362 , -1.485137E-06, 0.4497588, 0.449758827688762, -1.457107E-06, 0.05501211, 0.055012106914744
1.01999997720122, -7.438985E-07, -0.009194419, 0.00919441881804976 , -1.513693E-06, 0.4468894, 0.446889400484741, -1.427759E-06, -0.1434714, 0.143471360213708
1.03999997675419, -7.747319E-07, -0.0003921877, 0.00039218844299577 , -1.54167E-06, 0.4401107, 0.440110683443862, -1.398848E-06, -0.3389359, 0.338935852053668
1.05999997630715, -8.061136E-07, 0.008198163, 0.00819816351174799 , -1.569083E-06, 0.4295167, 0.42951667309094, -1.370648E-06, -0.5297005, 0.529700517656192
1.07999997586012, -8.380326E-07, 0.01650286, 0.0165028590921752 , -1.59595E-06, 0.4152342, 0.415234237912384, -1.343375E-06, -0.7141218, 0.714121758939099
1.09999997541308, -8.704785E-07, 0.0244513, 0.0244513042426085 , -1.622296E-06, 0.3974217, 0.397421717647049, -1.317284E-06, -0.890626, 0.890626013279935
1.11999997496605, -9.034414E-07, 0.03197666, 0.0319766551383805 , -1.648147E-06, 0.376267, 0.376266956332955, -1.292574E-06, -1.057738, 1.05773806572039
1.13999997451901, -9.369122E-07, 0.03901638, 0.0390163771920639 , -1.673537E-06, 0.3519856, 0.351985573772594, -1.269467E-06, -1.214069, 1.21406912803716
1.15999997407198, -9.708822E-07, 0.04551277, 0.0455127656563363 , -1.698499E-06, 0.3248189, 0.324818909172684, -1.248128E-06, -1.358333, 1.35833323001919
1.17999997362494, -1.005344E-06, 0.0514134, 0.0514134019711559 , -1.723074E-06, 0.2950317, 0.295031666760708, -1.228761E-06, -1.489362, 1.48936212062886
1.19999997317791, -1.04029E-06, 0.0566716, 0.0566715970730894 , -1.747304E-06, 0.2629091, 0.262909144168938, -1.211492E-06, -1.606126, 1.60612618923233
1.21999997273088, -1.075714E-06, 0.06124669, 0.0612466931437546 , -1.771233E-06, 0.2287546, 0.228754565126601, -1.196463E-06, -1.707729, 1.70772898197216
1.23999997228384, -1.111613E-06, 0.06510443, 0.0651044324135313 , -1.79491E-06, 0.1928867, 0.192886695274121, -1.183804E-06, -1.793393, 1.79339349269906
1.25999997183681, -1.14798E-06, 0.06821717, 0.0682171657778058 , -1.818381E-06, 0.1556364, 0.155636414896143, -1.173589E-06, -1.862514, 1.86251401901282
1.27999997138977, -1.184814E-06, 0.07056405, 0.0705640465120602 , -1.841699E-06, 0.1173438, 0.117343768491893, -1.165881E-06, -1.914632, 1.91463232040441
1.29999997094274, -1.222112E-06, 0.07213116, 0.0721311569317398 , -1.864914E-06, 0.07835507, 0.0783550739510262, -1.160737E-06, -1.949435, 1.94943475723301
1.3199999704957, -1.259874E-06, 0.07291156, 0.0729115605463159 , -1.888077E-06, 0.03901978, 0.0390197784165371, -1.158168E-06, -1.966765, 1.96676480770145
1.33999997004867, -1.298099E-06, 0.07290532, 0.0729053169604472 , -1.911241E-06, -0.0003127158, 0.000312721609273232, -1.15819E-06, -1.966625, 1.96662473678623
1.35999996960163, -1.336788E-06, 0.07211939, 0.0721193924670134 , -1.934456E-06, -0.03929618, 0.0392961800574562, -1.160777E-06, -1.949173, 1.94917321205174
1.3799999691546, -1.375943E-06, 0.07056759, 0.0705675855413111 , -1.957774E-06, -0.07759039, 0.0775903910645478, -1.16587E-06, -1.914711, 1.91471064090764
1.39999996870756, -1.415568E-06, 0.0682703, 0.0682703033236395 , -1.981242E-06, -0.1148643, 0.114864259975354, -1.173419E-06, -1.863693, 1.86369347572364
1.41999996826053, -1.455666E-06, 0.06525433, 0.065254330651307 , -2.004909E-06, -0.1507987, 0.150798708213783, -1.183321E-06, -1.796722, 1.79672241210976
1.43999996781349, -1.496243E-06, 0.06155255, 0.0615525506618681 , -2.028818E-06, -0.1850891, 0.185089081536922, -1.195474E-06, -1.714519, 1.71451866626781
1.45999996736646, -1.537303E-06, 0.05720359, 0.0572035946158508 , -2.053013E-06, -0.2174479, 0.217447862038767, -1.20973E-06, -1.617939, 1.61793911457107
1.47999996691942, -1.578854E-06, 0.05225145, 0.0522514470160126 , -2.077533E-06, -0.2476073, 0.24760732055582, -1.22601E-06, -1.507973, 1.50797295570423
1.49999996647239, -1.620902E-06, 0.04674503, 0.0467450283748797 , -2.102415E-06, -0.2753212, 0.275321185596864, -1.244086E-06, -1.385693, 1.38569331169184
1.51999996602535, -1.663456E-06, 0.04073769, 0.0407376923006649 , -2.127691E-06, -0.300367, 0.300366997726347, -1.263811E-06, -1.252291, 1.25229060649936
1.53999996557832, -1.706524E-06, 0.03428674, 0.0342867412097755 , -2.153391E-06, -0.3225477, 0.32254773379091, -1.285002E-06, -1.109037, 1.10903680324629
1.55999996513128, -1.750114E-06, 0.02745288, 0.027452880572433 , -2.179539E-06, -0.3416933, 0.341693341738976, -1.307433E-06, -0.9572804, 0.957280397416054
1.57999996468425, -1.794238E-06, 0.02029965, 0.0202996526706419 , -2.206158E-06, -0.357662, 0.357661962515959, -1.33092E-06, -0.798431, 0.798431038857616
1.59999996423721, -1.838903E-06, 0.01289284, 0.0128928386986365 , -2.233263E-06, -0.370341, 0.370341002947865, -1.355261E-06, -0.633952, 0.633952021600265
1.61999996379018, -1.88412E-06, 0.005299889, 0.00529988981746179 , -2.260866E-06, -0.3796477, 0.379647731787738, -1.38017E-06, -0.4653364, 0.46533644199576
1.63999996334314, -1.9299E-06, -0.002410703, 0.00241070411117747 , -2.288976E-06, -0.3855299, 0.38552993536675, -1.405488E-06, -0.2941102, 0.294110178950807
1.65999996289611, -1.976251E-06, -0.01017002, 0.010170018492428 , -2.317596E-06, -0.387966, 0.387966036803492, -1.430965E-06, -0.1218051, 0.121805071839155
1.67999996244907, -2.023186E-06, -0.01790931, 0.0179093145976822 , -2.346723E-06, -0.3869648, 0.386964797980749, -1.456362E-06, 0.05006194, 0.0500619411680343
1.69999996200204, -2.070713E-06, -0.02556062, 0.025560623118711 , -2.376352E-06, -0.3825654, 0.382565438754786, -1.481476E-06, 0.219968, 0.219967961316329
1.719999961555, -2.118843E-06, -0.03305735, 0.0330573544585258 , -2.406475E-06, -0.3748366, 0.374836564071751, -1.506123E-06, 0.3864437, 0.386443734171941
1.73999996110797, -2.167584E-06, -0.04033486, 0.0403348580585211 , -2.437075E-06, -0.3638754, 0.363875448711927, -1.529997E-06, 0.5480558, 0.548055768015136
1.75999996066093, -2.216947E-06, -0.047331, 0.0473309979361935 , -2.468134E-06, -0.3498071, 0.349807083615427, -1.552974E-06, 0.7034183, 0.703418254854009
1.7799999602139, -2.266939E-06, -0.05398665, 0.053986653733165 , -2.499631E-06, -0.3327827, 0.332782745370716, -1.574824E-06, 0.8512169, 0.851216912271049
1.79999995976686, -2.31757E-06, -0.06024622, 0.0602462217657488 , -2.531538E-06, -0.3129783, 0.312978327284561, -1.595379E-06, 0.9902209, 0.990220904351566
1.81999995931983, -2.368846E-06, -0.06605807, 0.0660580695100181 , -2.563827E-06, -0.2905927, 0.290592730056629, -1.614455E-06, 1.11928, 1.11927986145136
1.8399999588728, -2.420776E-06, -0.07137498, 0.0713749826364956 , -2.596465E-06, -0.2658457, 0.265845716012283, -1.631906E-06, 1.237351, 1.23735070228684
1.85999995842576, -2.473364E-06, -0.0761545, 0.0761545002862132 , -2.629418E-06, -0.2389759, 0.238975912347, -1.647606E-06, 1.34349, 1.34349024295908
1.87999995797873, -2.526617E-06, -0.08035927, 0.0803592726985453 , -2.662646E-06, -0.2102386, 0.21023863555687, -1.661419E-06, 1.436864, 1.43686389923192
1.89999995753169, -2.580539E-06, -0.08395734, 0.0839573368826719 , -2.696111E-06, -0.1799033, 0.179903328438934, -1.673232E-06, 1.516765, 1.51676535606477
1.91999995708466, -2.635135E-06, -0.08692236, 0.0869223624867283 , -2.72977E-06, -0.1482512, 0.148251190806725, -1.682963E-06, 1.582607, 1.58260691166014
1.93999995663762, -2.690406E-06, -0.08923382, 0.0892338157105714 , -2.763581E-06, -0.1155725, 0.115572512182852, -1.690535E-06, 1.633934, 1.63393402099697
1.95999995619059, -2.746356E-06, -0.09087709, 0.0908770934162274 , -2.7975E-06, -0.08216387, 0.0821638703822496, -1.695946E-06, 1.670432, 1.67043209076014
1.97999995574355, -2.802986E-06, -0.09184361, 0.0918436125348568 , -2.831482E-06, -0.04832602, 0.0483260155553621, -1.699118E-06, 1.691893, 1.69189274311151
1.99999995529652, -2.860296E-06, -0.09213082, 0.0921308249679157 , -2.865483E-06, -0.01436059, 0.0143605920551048, -1.700062E-06, 1.698271, 1.6982712745675
2.01999995484948, -2.918285E-06, -0.09174218, 0.0917421803342528 , -2.899459E-06, 0.01943217, 0.0194321723955351, -1.698788E-06, 1.689638, 1.68963825702753
2.03999995440245, -2.976952E-06, -0.09068705, 0.0906870514643051 , -2.933365E-06, 0.05275631, 0.0527563095908281, -1.695321E-06, 1.666207, 1.66620695591059
2.05999995395541, -3.036296E-06, -0.0889806, 0.0889806002896503 , -2.967159E-06, 0.0853226, 0.0853226036349285, -1.689705E-06, 1.628315, 1.62831473350613
2.07999995350838, -3.096312E-06, -0.08664358, 0.0866435766773345 , -3.0008E-06, 0.116851, 0.116851016917613, -1.682031E-06, 1.576421, 1.57642066478819
2.09999995306134, -3.156996E-06, -0.08370212, 0.0837021172642024 , -3.034248E-06, 0.1470731, 0.147073060305424, -1.672379E-06, 1.511102, 1.51110219955537
2.11999995261431, -3.218346E-06, -0.08018744, 0.0801874399831027 , -3.067465E-06, 0.175734, 0.175734028246948, -1.660851E-06, 1.433048, 1.43304848671056
2.13999995216727, -3.280354E-06, -0.07613553, 0.0761355311385164 , -3.100416E-06, 0.2025954, 0.202595397853733, -1.64755E-06, 1.343068, 1.34306848049265
2.15999995172024, -3.343015E-06, -0.0715868, 0.0715868026798716 , -3.133068E-06, 0.2274366, 0.227436602137211, -1.632611E-06, 1.24206, 1.24206018447983
2.1799999512732, -3.406323E-06, -0.06658567, 0.0665856749690638 , -3.165391E-06, 0.2500565, 0.250056505223282, -1.616183E-06, 1.130995, 1.13099515438195
2.19999995082617, -3.47027E-06, -0.06118016, 0.0611801595479979 , -3.19736E-06, 0.2702757, 0.270275652427512, -1.598437E-06, 1.010957, 1.0109573602689
2.21999995037913, -3.534849E-06, -0.05542141, 0.055421412103848 , -3.228951E-06, 0.2879372, 0.28793722392939, -1.579531E-06, 0.8830786, 0.88307857513569
2.2399999499321, -3.600052E-06, -0.04936324, 0.0493632370056176 , -3.260144E-06, 0.3029081, 0.302908122557064, -1.559636E-06, 0.7485449, 0.748544931413368
2.25999994948506, -3.665871E-06, -0.04306162, 0.0430616216431799 , -3.290922E-06, 0.3150803, 0.315080285089513, -1.538922E-06, 0.6086081, 0.608608126642265
2.27999994903803, -3.732296E-06, -0.0365742, 0.0365741962608679 , -3.321275E-06, 0.3243711, 0.324371099489049, -1.517651E-06, 0.4645407, 0.464540719988441
2.29999994859099, -3.79932E-06, -0.02995971, 0.0299597068304837 , -3.351194E-06, 0.3307242, 0.330724239366344, -1.495937E-06, 0.317657, 0.317656993869489
2.31999994814396, -3.866934E-06, -0.02327751, 0.0232775121413907 , -3.380673E-06, 0.3341097, 0.334109723585066, -1.473973E-06, 0.1692742, 0.169274210936288
2.33999994769692, -3.935128E-06, -0.01658704, 0.0165870399225586 , -3.409714E-06, 0.3345236, 0.33452361823866, -1.452031E-06, 0.02069473, 0.020694732716956
2.35999994724989, -4.003894E-06, -0.009947268, 0.00994726909811552 , -3.438318E-06, 0.3319886, 0.331988573092146, -1.430215E-06, -0.1267523, 0.126752257355176
2.37999994680285, -4.073224E-06, -0.003416209, 0.00341621097863281 , -3.466494E-06, 0.326553, 0.326552987117093, -1.408773E-06, -0.2717793, 0.271779298786
2.39999994635582, -4.143109E-06, 0.002949594, 0.00294959649849161 , -3.494251E-06, 0.3182901, 0.318290114421951, -1.387866E-06, -0.4131436, 0.413143634798474
2.41999994590878, -4.213542E-06, 0.009095546, 0.00909554683411323 , -3.521605E-06, 0.3072976, 0.307297647019538, -1.367687E-06, -0.5496234, 0.549623370172295
2.43999994546175, -4.284513E-06, 0.01496947, 0.0149694733865227 , -3.548573E-06, 0.2936963, 0.293696343920211, -1.348417E-06, -0.6800652, 0.680065155030634
2.45999994501472, -4.356017E-06, 0.02052205, 0.0205220528844705 , -3.575176E-06, 0.277629, 0.27762895824827, -1.33017E-06, -0.8033693, 0.803369283677249
2.47999994456768, -4.428045E-06, 0.02570722, 0.0257072247653136 , -3.60144E-06, 0.2592586, 0.259258627916555, -1.313163E-06, -0.9185165, 0.918516516686425
2.49999994412065, -4.500593E-06, 0.03048257, 0.0304825737669551 , -3.627389E-06, 0.2387675, 0.23876748981847, -1.297474E-06, -1.024557, 1.0245568752297
2.51999994367361, -4.573654E-06, 0.03480966, 0.0348096641922593 , -3.653055E-06, 0.2163545, 0.216354489357317, -1.283297E-06, -1.12065, 1.12065005302503
2.53999994322658, -4.647224E-06, 0.03865434, 0.0386543425730959 , -3.678468E-06, 0.1922339, 0.192233935033707, -1.270644E-06, -1.206028, 1.20602774620123
2.55999994277954, -4.721297E-06, 0.04198701, 0.0419870096119321 , -3.703662E-06, 0.1666333, 0.166633337777289, -1.259718E-06, -1.28003, 1.28002989292207
2.57999994233251, -4.795871E-06, 0.04478283, 0.0447828287964089 , -3.728673E-06, 0.1397909, 0.139790937354225, -1.250521E-06, -1.34212, 1.34212005138455
