time, position, , , velocity, , ,acceleration, , 
, x, y, s, x, y, s, x, y, s, 
0.0199999995529652, 0, 0, 0 , 0, 0, 0, 0, 0, 0
0.0399999991059303, -2.30304E-08, 0.100453, 0.100453004240992 , -1.219026E-08, -0.09735057, 0.0973505675792702, -6.09513E-07, -4.867528, 4.86752843856815
0.0599999986588955, -2.369564E-08, 0.09728348, 0.097283475100997 , -3.303944E-08, -0.1594773, 0.159477263689045, -1.042459E-06, -3.106335, 3.10633492469805
0.0799999982118607, -2.47602E-08, 0.09289692, 0.0928969234228167 , -5.304969E-08, -0.2201286, 0.220128595829016, -1.000512E-06, -3.032567, 3.03256678581254
0.0999999977648258, -2.622978E-08, 0.08733146, 0.0873314589262048 , -7.333621E-08, -0.2789137, 0.278913736343393, -1.014326E-06, -2.939257, 2.93925714492815
0.119999997317791, -2.811115E-08, 0.08063258, 0.0806325823068668 , -9.395468E-08, -0.3354564, 0.335456430912031, -1.030924E-06, -2.827135, 2.82713484764118
0.139999996870756, -3.041214E-08, 0.07285283, 0.0728528276085917 , -1.149581E-07, -0.3893977, 0.389397740364092, -1.050169E-06, -2.697066, 2.69706559181234
0.159999996423721, -3.314153E-08, 0.06405143, 0.0640514269471254 , -1.363965E-07, -0.440398, 0.440397977829001, -1.071922E-06, -2.550012, 2.55001187324546
0.179999995976686, -3.630904E-08, 0.05429389, 0.054293889552367 , -1.583169E-07, -0.4881393, 0.488139271736171, -1.096019E-06, -2.387065, 2.38706469535853
0.199999995529652, -3.992523E-08, 0.04365155, 0.0436515472829524 , -1.807628E-07, -0.5323273, 0.532327294349701, -1.122294E-06, -2.209401, 2.20940113067655
0.219999995082617, -4.400145E-08, 0.03220105, 0.0322010479867759 , -2.037739E-07, -0.572693, 0.572692990303076, -1.150554E-06, -2.018285, 2.01828479766878
0.239999994635582, -4.854977E-08, 0.02002385, 0.0200238544494502 , -2.273859E-07, -0.6089944, 0.608994364738507, -1.180602E-06, -1.815069, 1.81506872177162
0.259999994188547, -5.358286E-08, 0.007205643, 0.00720564275999919 , -2.516304E-07, -0.6410182, 0.641018152236988, -1.212226E-06, -1.601189, 1.60118937492417
0.279999993741512, -5.911393E-08, -0.006164239, 0.00616423925413224 , -2.765346E-07, -0.6685805, 0.668580532074032, -1.245209E-06, -1.378119, 1.37811899185237
0.299999993294477, -6.515666E-08, -0.01999342, 0.0199934206904042 , -3.021211E-07, -0.6915284, 0.691528439521856, -1.279324E-06, -1.147395, 1.14739537239146
0.319999992847443, -7.172506E-08, -0.03418713, 0.0341871306300916 , -3.284077E-07, -0.7097406, 0.709740638732986, -1.314332E-06, -0.91061, 0.910609960556979
0.339999992400408, -7.883342E-08, -0.0486488, 0.0486488044262571 , -3.554077E-07, -0.7231278, 0.72312784194955, -1.350001E-06, -0.6693602, 0.669360160828998
0.359999991953373, -8.649616E-08, -0.06328077, 0.0632807686925526 , -3.831295E-07, -0.7316335, 0.731633543968301, -1.386088E-06, -0.4252851, 0.425285100939148
0.379999991506338, -9.472782E-08, -0.07798488, 0.0779848769307712 , -4.115766E-07, -0.7352337, 0.73523366451275, -1.422353E-06, -0.180006, 0.180006027227299
0.399999991059303, -1.035429E-07, -0.09266316, 0.0926631614566428 , -4.407477E-07, -0.7339368, 0.733936786651744, -1.458557E-06, 0.06484389, 0.0648438930675514
0.419999990612268, -1.129557E-07, -0.1072185, 0.107218481600344 , -4.706368E-07, -0.727784, 0.727784037590179, -1.494453E-06, 0.3076375, 0.307637453082854
0.439999990165234, -1.229804E-07, -0.1215552, 0.12155516445643 , -5.01233E-07, -0.7168484, 0.716848433017906, -1.529814E-06, 0.5467802, 0.546780228616947
0.459999989718199, -1.336309E-07, -0.1355796, 0.135579630732602 , -5.32521E-07, -0.7012342, 0.701234221458637, -1.564396E-06, 0.7807106, 0.78071057796635
0.479999989271164, -1.449205E-07, -0.149201, 0.149200975894998 , -5.644808E-07, -0.6810759, 0.681075930595632, -1.597991E-06, 1.007915, 1.00791454315312
0.499999988824129, -1.568623E-07, -0.1623316, 0.162331566214637 , -5.970883E-07, -0.6565373, 0.656537294388089, -1.630377E-06, 1.226932, 1.22693181038011
0.519999988377094, -1.694687E-07, -0.1748876, 0.174887642264448 , -6.303152E-07, -0.62781, 0.627810001373607, -1.661343E-06, 1.436365, 1.43636465072728
0.539999987930059, -1.827513E-07, -0.1867898, 0.186789795756429 , -6.641291E-07, -0.595112, 0.595112025738133, -1.690694E-06, 1.634899, 1.6348987817773
0.559999987483025, -1.967212E-07, -0.1979634, 0.197963446378806 , -6.984941E-07, -0.5586865, 0.558686494827707, -1.718251E-06, 1.821277, 1.82127654552541
0.57999998703599, -2.113886E-07, -0.2083394, 0.208339378237832 , -7.333709E-07, -0.5187997, 0.518799662590545, -1.743842E-06, 1.994342, 1.99434161186295
0.599999986588955, -2.26763E-07, -0.2178541, 0.217854112386822 , -7.68717E-07, -0.4757388, 0.47573882341447, -1.767302E-06, 2.153042, 2.15304207801891
0.61999998614192, -2.428527E-07, -0.2264503, 0.226450279355179 , -8.044869E-07, -0.4298103, 0.429810345173635, -1.788499E-06, 2.296424, 2.29642391204904
0.639999985694885, -2.596654E-07, -0.234077, 0.234076991677428 , -8.406331E-07, -0.3813376, 0.381337642670604, -1.807308E-06, 2.423635, 2.42363524437018
0.65999998524785, -2.772075E-07, -0.2406901, 0.240690127015273 , -8.771055E-07, -0.3306588, 0.330658793450565, -1.823622E-06, 2.533942, 2.53394246101445
0.679999984800816, -2.954845E-07, -0.2462526, 0.246252581477343 , -9.138523E-07, -0.2781243, 0.27812433242948, -1.837338E-06, 2.626723, 2.62672305107181
0.699999984353781, -3.145009E-07, -0.2507344, 0.25073444843312 , -9.508202E-07, -0.2240948, 0.224094808103671, -1.848395E-06, 2.701476, 2.70147633552615
0.719999983906746, -3.3426E-07, -0.2541132, 0.254113167524558 , -9.879546E-07, -0.1689381, 0.168938100340871, -1.856722E-06, 2.757835, 2.75783538818422
0.739999983459711, -3.54764E-07, -0.2563737, 0.25637367367769 , -1.025201E-06, -0.1130273, 0.113027304415584, -1.862298E-06, 2.79554, 2.79553985595765
0.759999983012676, -3.760141E-07, -0.2575084, 0.257508426904953 , -1.062503E-06, -0.05673793, 0.0567379295925443, -1.865101E-06, 2.814469, 2.81446886062684
0.779999982565641, -3.980102E-07, -0.2575173, 0.25751733779938 , -1.099805E-06, -0.0004455447, 0.000445546077100948, -1.865118E-06, 2.814619, 2.81461930275025
0.799999982118607, -4.207512E-07, -0.2564078, 0.256407797336924 , -1.137053E-06, 0.05547662, 0.0554766208049951, -1.862384E-06, 2.796108, 2.79610824585023
0.819999981671572, -4.442351E-07, -0.2541946, 0.254194587469489 , -1.174191E-06, 0.1106606, 0.110660552984745, -1.856927E-06, 2.759197, 2.75919675827089
0.839999981224537, -4.684584E-07, -0.2508997, 0.250899672508677 , -1.211167E-06, 0.1647453, 0.164745256309193, -1.848792E-06, 2.704235, 2.70423531532351
0.859999980777502, -4.93417E-07, -0.2465521, 0.246552065015333 , -1.247928E-06, 0.2173796, 0.217379629615551, -1.838072E-06, 2.631719, 2.63171863555972
0.879999980330467, -5.191055E-07, -0.2411876, 0.241187557578645 , -1.284426E-06, 0.2682245, 0.268224537375664, -1.824856E-06, 2.542245, 2.54224538803166
0.899999979883432, -5.455177E-07, -0.2348485, 0.234848454595246 , -1.32061E-06, 0.3169547, 0.316954702141652, -1.809207E-06, 2.436508, 2.43650817871161
0.919999979436398, -5.726463E-07, -0.2275832, 0.227583229542499 , -1.356436E-06, 0.3632613, 0.363261282446533, -1.791295E-06, 2.315329, 2.31532907486031
0.939999978989363, -6.004835E-07, -0.2194462, 0.219446152449476 , -1.39186E-06, 0.4068533, 0.406853318216797, -1.771224E-06, 2.179602, 2.17960190773082
0.959999978542328, -6.290204E-07, -0.2104969, 0.210496947170244 , -1.426843E-06, 0.4474601, 0.447460055353532, -1.749157E-06, 2.030337, 2.03033685684279
0.979999978095293, -6.582474E-07, -0.2008003, 0.200800299645549 , -1.461348E-06, 0.4848321, 0.484832078220662, -1.725249E-06, 1.868601, 1.86860120296558
0.999999977648258, -6.881542E-07, -0.1904254, 0.190425440670303 , -1.495341E-06, 0.5187432, 0.518743157388935, -1.699658E-06, 1.695554, 1.69555401802148
1.01999997720122, -7.1873E-07, -0.1794456, 0.17944560945178 , -1.528793E-06, 0.5489914, 0.548991441728813, -1.672572E-06, 1.512414, 1.51241421699616
1.03999997675419, -7.499635E-07, -0.1679376, 0.167937591673618 , -1.561677E-06, 0.5754007, 0.575400710108015, -1.644196E-06, 1.320463, 1.32046341896159
1.05999997630715, -7.81843E-07, -0.1559812, 0.155981168152861 , -1.593971E-06, 0.5978215, 0.597821474077442, -1.614711E-06, 1.121038, 1.12103819847223
1.07999997586012, -8.143561E-07, -0.1436585, 0.143658533694668 , -1.625657E-06, 0.6161314, 0.616131424906014, -1.584323E-06, 0.9154975, 0.915497541428983
1.09999997541308, -8.474905E-07, -0.1310538, 0.131053805353998 , -1.656722E-06, 0.6302365, 0.630236506464275, -1.553246E-06, 0.7052541, 0.705254077913087
1.11999997496605, -8.812336E-07, -0.1182524, 0.118252381685679 , -1.687156E-06, 0.6400712, 0.640071153642971, -1.521659E-06, 0.4917324, 0.49173235893485
1.13999997451901, -9.155727E-07, -0.1053404, 0.105340413753197 , -1.716952E-06, 0.6455984, 0.645598411562342, -1.489826E-06, 0.2763629, 0.276362895969592
1.15999997407198, -9.504949E-07, -0.09240421, 0.0924042090822468 , -1.74611E-06, 0.6468103, 0.646810293199989, -1.45792E-06, 0.06059408, 0.0605940818962012
1.17999997362494, -9.859875E-07, -0.07952967, 0.0795296654166306 , -1.774634E-06, 0.6437273, 0.643727302553716, -1.426167E-06, -0.1541495, 0.154149532324713
1.19999997317791, -1.022038E-06, -0.0668017, 0.0668016970235807 , -1.802529E-06, 0.6363984, 0.63639843464153, -1.394784E-06, -0.3664434, 0.366443395617278
1.21999997273088, -1.058634E-06, -0.05430369, 0.0543036870761586 , -1.829809E-06, 0.6249002, 0.624900221827325, -1.363958E-06, -0.5749106, 0.574910640718171
1.23999997228384, -1.095764E-06, -0.04211695, 0.0421169512116401 , -1.856487E-06, 0.6093366, 0.609336614611593, -1.333905E-06, -0.7781804, 0.778180360795211
1.25999997183681, -1.133416E-06, -0.0303202, 0.0303201973650107 , -1.882583E-06, 0.5898377, 0.589837670329237, -1.304818E-06, -0.9749472, 0.97494721412746
1.27999997138977, -1.171578E-06, -0.01898902, 0.0189890154067492 , -1.90812E-06, 0.5665588, 0.566558837893838, -1.276862E-06, -1.163942, 1.1639416217811
1.29999997094274, -1.210241E-06, -0.00819543, 0.0081954301297192 , -1.933126E-06, 0.5396793, 0.539679288867598, -1.250271E-06, -1.343977, 1.34397745132504
1.3199999704957, -1.249393E-06, 0.001992597, 0.00199259763637556 , -1.957628E-06, 0.5094011, 0.509401082996315, -1.225112E-06, -1.51391, 1.5139102935796
1.33999997004867, -1.289026E-06, 0.01151155, 0.0115115457004798 , -1.981661E-06, 0.4759474, 0.475947409872366, -1.201659E-06, -1.672684, 1.67268371582074
1.35999996960163, -1.329132E-06, 0.02030277, 0.0203027669775434 , -2.00526E-06, 0.4395611, 0.439561069016262, -1.179956E-06, -1.819317, 1.81931710243263
1.3799999691546, -1.369701E-06, 0.02831282, 0.0283128209743411 , -2.028465E-06, 0.4005027, 0.400502681737315, -1.160231E-06, -1.952919, 1.95291936397587
1.39999996870756, -1.410727E-06, 0.03549379, 0.0354937948566885 , -2.051315E-06, 0.3590487, 0.359048724180359, -1.142496E-06, -2.072698, 2.07269787788423
1.41999996826053, -1.452204E-06, 0.04180359, 0.0418035909785739 , -2.073854E-06, 0.3154899, 0.315489888198039, -1.126955E-06, -2.177942, 2.17794179916411
1.43999996781349, -1.494127E-06, 0.04720616, 0.0472061634300174 , -2.096126E-06, 0.2701287, 0.270128726967361, -1.113608E-06, -2.268058, 2.26805806160001
1.45999996736646, -1.53649E-06, 0.05167172, 0.0516717210640468 , -2.118178E-06, 0.2232779, 0.223277881751571, -1.102615E-06, -2.342542, 2.34254240989711
1.47999996691942, -1.579291E-06, 0.05517688, 0.0551768802332396 , -2.140057E-06, 0.1752577, 0.175257742418004, -1.093952E-06, -2.401007, 2.40100693702723
1.49999996647239, -1.622528E-06, 0.05770477, 0.057704772823018 , -2.161812E-06, 0.1263944, 0.126394376177202, -1.087733E-06, -2.443168, 2.44316840171838
1.51999996602535, -1.666197E-06, 0.05924512, 0.0592451207574063 , -2.183491E-06, 0.07701713, 0.0770171284985116, -1.083936E-06, -2.468863, 2.46886253356957
1.53999996557832, -1.7103E-06, 0.05979426, 0.059794258350752 , -2.205143E-06, 0.02745667, 0.0274566710880784, -1.082594E-06, -2.478023, 2.47802281379723
1.55999996513128, -1.754837E-06, 0.05935511, 0.0593551136812697 , -2.226816E-06, -0.02195728, 0.0219572783645652, -1.083663E-06, -2.470697, 2.47069740295434
1.57999996468425, -1.799808E-06, 0.05793715, 0.0579371527116903 , -2.248559E-06, -0.07089819, 0.0708981901763811, -1.087164E-06, -2.447046, 2.44704556465173
1.59999996423721, -1.845216E-06, 0.05555626, 0.0555562600799861 , -2.27042E-06, -0.1190449, 0.11904488506098, -1.093031E-06, -2.407335, 2.40733480453516
1.61999996379018, -1.891065E-06, 0.05223459, 0.0522345938130801 , -2.292445E-06, -0.1660834, 0.166083440200414, -1.101239E-06, -2.351928, 2.35192775726344
1.63999996334314, -1.937359E-06, 0.04800041, 0.0480004065129722 , -2.314678E-06, -0.2117095, 0.211709499371784, -1.111664E-06, -2.281303, 2.28130292892483
1.65999996289611, -1.984102E-06, 0.04288781, 0.0428878106635802 , -2.337164E-06, -0.2556301, 0.255630075942233, -1.124295E-06, -2.196029, 2.19602894783049
1.67999996244907, -2.031301E-06, 0.03693651, 0.0369365104101355 , -2.359943E-06, -0.2975653, 0.297565281400502, -1.138949E-06, -2.09676, 2.09676027298005
1.69999996200204, -2.078962E-06, 0.03019151, 0.0301915128499792 , -2.383055E-06, -0.3372505, 0.337250471123532, -1.155593E-06, -1.984259, 1.98425948619876
1.719999961555, -2.127093E-06, 0.02270278, 0.0227027759952425 , -2.406535E-06, -0.3744375, 0.374437451370343, -1.174044E-06, -1.859349, 1.85934901237525
1.73999996110797, -2.175701E-06, 0.01452485, 0.0145248548825897 , -2.43042E-06, -0.4088963, 0.408896327025961, -1.194212E-06, -1.722944, 1.72294378280681
1.75999996066093, -2.224796E-06, 0.005716531, 0.00571653150474202 , -2.454739E-06, -0.4404168, 0.440416783101247, -1.215949E-06, -1.576023, 1.57602286338853
1.7799999602139, -2.274386E-06, -0.003659647, 0.00365964789768264 , -2.47952E-06, -0.4688095, 0.468809485442043, -1.239084E-06, -1.419635, 1.41963517665917
1.79999995976686, -2.324482E-06, -0.01353777, 0.0135377731307193 , -2.504789E-06, -0.4939069, 0.493906885391865, -1.263436E-06, -1.25487, 1.25487005710665
1.81999995931983, -2.375094E-06, -0.02384905, 0.0238490497013436 , -2.530566E-06, -0.5155647, 0.515564680105698, -1.288856E-06, -1.08289, 1.08288979530411
1.8399999588728, -2.426231E-06, -0.03452228, 0.0345222764569754 , -2.55687E-06, -0.5336618, 0.533661842352317, -1.315186E-06, -0.9048581, 0.904858112336161
1.85999995842576, -2.477905E-06, -0.04548431, 0.0454843082208869 , -2.583714E-06, -0.5481021, 0.548102140432726, -1.342221E-06, -0.7220149, 0.722014904023464
1.87999995797873, -2.530128E-06, -0.05666057, 0.0566605702607483 , -2.61111E-06, -0.558814, 0.55881404877319, -1.369779E-06, -0.5355954, 0.535595417024457
1.89999995753169, -2.582909E-06, -0.06797559, 0.067975588191944 , -2.639063E-06, -0.5657516, 0.565751552587942, -1.397677E-06, -0.3468752, 0.346875190737679
1.91999995708466, -2.63626E-06, -0.07935344, 0.0793534368714502 , -2.667578E-06, -0.5688934, 0.568893432623442, -1.425735E-06, -0.157094, 0.157094001776489
1.93999995663762, -2.690193E-06, -0.09071831, 0.0907183066409355 , -2.696654E-06, -0.5682441, 0.568244099623403, -1.45377E-06, 0.03246665, 0.0324666500417033
1.95999995619059, -2.744719E-06, -0.1019949, 0.101994939185357 , -2.726285E-06, -0.5638329, 0.563832879073058, -1.481567E-06, 0.220561, 0.220561027531832
1.97999995574355, -2.799849E-06, -0.1131092, 0.113109201227509 , -2.756465E-06, -0.5557141, 0.555714130408448, -1.508988E-06, 0.4059374, 0.405937433245603
1.99999995529652, -2.855592E-06, -0.1239885, 0.123988494309884 , -2.787182E-06, -0.5439659, 0.543965935714233, -1.535841E-06, 0.5874097, 0.58740973472796
2.01999995484948, -2.911961E-06, -0.1345623, 0.134562283785857 , -2.818419E-06, -0.5286906, 0.528690576560857, -1.561875E-06, 0.763768, 0.763767957688975
2.03999995440245, -2.968964E-06, -0.1447625, 0.144762516052174 , -2.85016E-06, -0.5100124, 0.510012388237334, -1.587046E-06, 0.9339094, 0.933909416200079
2.05999995395541, -3.026611E-06, -0.1545241, 0.154524058133202 , -2.882382E-06, -0.4880778, 0.488077849158215, -1.611124E-06, 1.096727, 1.09672701358913
2.07999995350838, -3.084913E-06, -0.1637851, 0.16378512981459 , -2.915062E-06, -0.4630539, 0.463053852328893, -1.633975E-06, 1.2512, 1.2511998415004
2.09999995306134, -3.143876E-06, -0.1724877, 0.172487661271136 , -2.948171E-06, -0.4351268, 0.435126751671288, -1.65544E-06, 1.396355, 1.39635503292182
2.11999995261431, -3.20351E-06, -0.1805777, 0.180577680496975 , -2.981678E-06, -0.4045009, 0.404500931512378, -1.675369E-06, 1.531291, 1.53129100799652
2.13999995216727, -3.263821E-06, -0.1880056, 0.18800562622996 , -3.015552E-06, -0.3713972, 0.371397197258794, -1.693684E-06, 1.655187, 1.65518677234736
2.15999995172024, -3.324816E-06, -0.1947266, 0.194726645974887 , -3.049757E-06, -0.3360513, 0.33605134488536, -1.710271E-06, 1.767293, 1.76729261875235
2.1799999512732, -3.386501E-06, -0.2007009, 0.200700894026717 , -3.084257E-06, -0.2987126, 0.298712551609703, -1.724993E-06, 1.86694, 1.86693966388782
2.19999995082617, -3.448881E-06, -0.2058937, 0.20589372518567 , -3.119013E-06, -0.2596414, 0.259641408939022, -1.737794E-06, 1.953557, 1.95355713367539
2.21999995037913, -3.511961E-06, -0.2102759, 0.210275888472321 , -3.153985E-06, -0.2191084, 0.219108447455218, -1.748617E-06, 2.026648, 2.02664804458694
2.2399999499321, -3.575743E-06, -0.2138237, 0.213823720842696 , -3.189132E-06, -0.177392, 0.177391976146755, -1.75736E-06, 2.085824, 2.08582353591993
2.25999994948506, -3.640232E-06, -0.2165193, 0.216519251496398 , -3.224412E-06, -0.1347763, 0.134776279368824, -1.763999E-06, 2.130785, 2.13078498840405
2.27999994903803, -3.705427E-06, -0.2183502, 0.218350246580093 , -3.259783E-06, -0.09154978, 0.0915497840031186, -1.768512E-06, 2.161325, 2.1613247394569
2.29999994859099, -3.771331E-06, -0.2193103, 0.219310313495638 , -3.2952E-06, -0.04800299, 0.0480029882131526, -1.770889E-06, 2.17734, 2.17733979225231
2.31999994814396, -3.837944E-06, -0.2193988, 0.219398841295432 , -3.330623E-06, -0.004426628, 0.00442662960420206, -1.771116E-06, 2.178818, 2.17881798744274
2.33999994769692, -3.905264E-06, -0.218621, 0.218621030484747 , -3.366007E-06, 0.0388903, 0.0388903023269101, -1.769206E-06, 2.165847, 2.16584658622814
2.35999994724989, -3.97329E-06, -0.2169878, 0.216987788713593 , -3.40131E-06, 0.08166234, 0.0816623420231577, -1.76517E-06, 2.138602, 2.13860201835705
2.37999994680285, -4.04202E-06, -0.2145156, 0.21451559666627 , -3.436492E-06, 0.1236096, 0.123609647202577, -1.759065E-06, 2.097365, 2.09736537933423
2.39999994635582, -4.11145E-06, -0.2112264, 0.21122640375324 , -3.471511E-06, 0.1644598, 0.164459764994067, -1.750959E-06, 2.042506, 2.04250597953871
2.41999994590878, -4.181577E-06, -0.2071474, 0.207147419494873 , -3.506329E-06, 0.2039492, 0.203949168354611, -1.740898E-06, 1.97447, 1.97447025775986
2.43999994546175, -4.252395E-06, -0.2023109, 0.202310919806348 , -3.540908E-06, 0.2418251, 0.241825103785689, -1.728972E-06, 1.893797, 1.89379680156787
2.45999994501472, -4.3239E-06, -0.196754, 0.196753978776759 , -3.575213E-06, 0.2778473, 0.277847290062065, -1.71525E-06, 1.801109, 1.80110931396566
2.47999994456768, -4.396084E-06, -0.1905182, 0.19051820044821 , -3.609211E-06, 0.3117893, 0.311789274236588, -1.699902E-06, 1.697099, 1.69709920883264
2.49999994412065, -4.468941E-06, -0.1836494, 0.183649390990272 , -3.64287E-06, 0.3434398, 0.343439817447909, -1.68294E-06, 1.582527, 1.58252716064543
2.51999994367361, -4.542464E-06, -0.1761973, 0.176197290479086 , -3.676161E-06, 0.3726044, 0.372604370135322, -1.664557E-06, 1.458228, 1.45822763443088
2.53999994322658, -4.616646E-06, -0.1682152, 0.168215155664853 , -3.709059E-06, 0.3991062, 0.399106174724648, -1.644867E-06, 1.32509, 1.32509028911693
2.55999994277954, -4.691477E-06, -0.1597594, 0.15975940234397 , -3.741539E-06, 0.4227871, 0.422787129895554, -1.624016E-06, 1.184048, 1.18404781818501
2.57999994233251, -4.766948E-06, -0.1508892, 0.150889217928846 , -3.773582E-06, 0.4435091, 0.443509072081407, -1.602143E-06, 1.036097, 1.03609716892366
2.59999994188547, -4.843052E-06, -0.1416661, 0.141666129314236 , -3.80517E-06, 0.4611543, 0.461154252306425, -1.579428E-06, 0.882259, 0.882259011270029
